-0.001870
0.040395
0.096257
0.140084
0.144012
0.145567
0.141108
0.130694
0.099241
0.044798
-0.010976
-0.064186
-0.100403
-0.132251
-0.126240
-0.126139
-0.158964
-0.134412
-0.099281
-0.058558
-0.017617
0.015456
0.058142
0.107368
0.124171
0.140484
0.127037
0.084019
0.034891
0.014704
-0.019176
-0.058251
-0.096089
-0.132271
-0.147565
-0.158868
-0.155914
-0.129212
-0.093568
-0.051694
0.008173
0.053403
0.082739
0.091293
0.106218
0.137684
0.135887
0.066953
0.008016
0.000483
-0.031735
-0.078034
-0.112000
-0.140538
-0.084078
0.010200
-0.134947
-0.267648
-0.149377
-0.076503
-0.040416
0.005885
0.055423
0.083495
0.129000
0.134742
0.130855
0.115758
0.077675
0.045718
-0.026799
-0.067445
-0.110671
-0.135201
-0.156869
-0.164895
-0.151644
-0.167317
-0.142330
-0.075478
0.004215
0.072932
0.105055
0.134733
0.140869
0.176029
0.196984
0.195167
0.157907
0.131609
0.092383
0.076331
0.054895
0.054741
0.063209
0.067363
0.082516
0.146817
0.183464
0.277938
0.387377
0.458132
0.514194
0.564538
0.595915
0.635657
0.671924
0.720138
0.698652
0.648172
0.682116
0.668042
0.622605
0.602149
0.579164
0.587271
0.555829
0.585472
0.585338
0.577413
0.566397
0.571110
0.552411
0.525830
0.501206
0.478343
0.448030
0.386449
0.246143
0.175171
0.177585
0.125032
0.072359
0.059173
0.030268
0.023983
0.003984
0.014559
0.030217
0.059239
0.058581
0.123665
0.147534
0.168890
0.192121
0.202103
0.187740
0.147745
0.129088
0.115786
0.057207
-0.019684
-0.043404
-0.072962
-0.075222
-0.081640
-0.088240
-0.087050
-0.064107
0.014209
0.042016
0.083002
0.112730
0.155304
0.123169
0.116206
0.130524
0.122196
0.078050
0.041493
-0.005822
-0.032756
-0.036630
-0.044052
-0.056521
-0.104238
-0.076062
-0.068452
-0.075617
-0.018755
0.044866
0.073517
0.131587
0.117192
0.165816
0.197112
0.172042
0.137304
0.101005
0.067025
0.019773
-0.020752
-0.062193
-0.080189
-0.090055
-0.117670
-0.117189
-0.092186
-0.084904
-0.013546
0.015524
0.035599
0.063062
0.120725
0.194583
0.197199
0.202619
0.145698
0.104307
0.089667
0.063141
-0.009969
-0.025504
-0.029745
-0.060799
-0.056984
-0.059903
-0.062118
-0.030897
-0.005720
0.013012
0.098184
0.124355
0.152355
0.208372
0.250367
0.253089
0.219247
0.165768
0.116287
0.062970
0.030387
-0.012809
-0.056476
-0.083957
-0.109387
-0.100114
-0.075231
-0.039892
0.015965
0.064749
0.139232
0.213365
0.244331
0.269902
0.157945
0.092069
0.149114
0.145451
0.109808
0.119285
0.128551
0.112809
0.058585
-0.011477
-0.017478
0.009815
0.016879
0.027842
0.051669
0.073767
0.111371
0.165170
0.245242
0.263689
0.252064
0.193008
0.182243
0.162831
0.113717
0.104365
0.076312
0.021136
-0.029708
-0.060760
-0.058023
-0.006542
0.044091
0.084243
0.098946
0.146236
0.194619
0.282604
0.306048
0.284413
0.238539
0.258112
0.228612
0.223134
0.193723
0.186574
0.138489
0.048804
0.064104
0.053167
0.037376
0.082834
-0.043303
-0.032049
0.037600
0.094960
0.148559
0.222391
0.227567
0.246032
0.275872
0.249155
0.227497
0.174103
0.145773
0.115456
0.091700
0.055652
0.058968
0.067702
0.060995
0.045392
-0.011572
0.034631
0.079062
0.102981
0.124395
0.164519
0.196066
0.217883
0.216098
0.175664
0.182694
0.158497
0.105466
0.073144
0.018500
-0.031152
-0.058016
-0.054219
-0.070629
-0.048713
-0.038507
0.007685
0.032886
0.059655
0.115656
0.158743
0.192372
0.221388
0.244573
0.206590
0.174507
0.133694
0.062413
0.049999
-0.021789
-0.055278
-0.117284
-0.129788
-0.132205
-0.104395
-0.064344
-0.019383
0.012584
0.057018
0.046742
0.045318
0.106525
0.119195
0.172613
0.176891
0.184847
0.165215
0.137814
0.079507
0.015682
-0.048406
-0.045185
-0.058550
-0.089872
-0.068611
-0.061799
-0.055519
0.039620
0.091062
0.114220
0.210015
0.224144
0.177822
0.105268
0.052327
0.064676
0.059275
0.012935
-0.018472
-0.053321
-0.111926
-0.153867
-0.151059
-0.110331
-0.108152
-0.087397
-0.071711
0.006395
0.051319
0.101313
0.184678
0.171599
0.192381
0.195263
0.222492
0.205492
0.153987
0.075451
0.012783
-0.037091
-0.101558
-0.088132
-0.097800
-0.043511
-0.070839
-0.081597
-0.070989
-0.029433
0.052342
0.121374
0.121081
0.129907
0.171846
0.180105
0.235258
0.163231
0.121913
0.018909
-0.053506
-0.085688
-0.111888
-0.121571
-0.162258
-0.156556
-0.122462
-0.106038
-0.073272
-0.024433
0.047273
0.097621
0.116864
0.117473
0.198595
0.180774
0.191972
0.201266
0.133606
0.125097
0.045610
0.028191
0.009027
-0.091311
-0.133735
-0.148743
-0.105542
-0.058240
-0.005482
-0.001863
0.050952
0.107336
0.121422
0.139230
0.133151
0.075240
0.055877
0.090011
0.069955
0.007193
-0.035396
-0.059655
-0.097146
-0.101070
-0.165147
-0.178941
-0.136578
-0.052192
-0.069784
-0.065630
-0.034455
0.004646
0.072046
0.129112
0.148002
0.158378
0.155207
0.106147
0.096027
0.054749
0.007788
0.041689
0.014124
-0.133913
-0.074454
-0.050470
-0.011458
-0.016962
-0.022400
0.016760
0.036428
0.034354
0.080313
0.105742
0.103142
0.101846
0.102096
0.139850
0.083322
0.033286
-0.012349
-0.070746
-0.093415
-0.097580
-0.106520
-0.105459
-0.089957
-0.064015
-0.043534
0.009273
0.075318
0.123053
0.179362
0.266265
0.264683
0.225139
0.203045
0.246529
0.163004
0.131490
0.129185
0.092267
0.055093
-0.001406
-0.044533
-0.062392
-0.087987
-0.077925
-0.024071
0.015318
0.031743
0.080017
0.109826
0.144862
0.149302
0.163306
0.172891
0.189737
0.139585
0.072786
0.009198
-0.020144
-0.052646
-0.102882
-0.112944
-0.113255
-0.063680
-0.079924
-0.038933
0.023572
0.067790
0.139596
0.192572
0.222715
0.211226
0.216763
0.228129
0.234685
0.155943
0.100809
0.095758
0.075921
0.031094
-0.035986
-0.040072
-0.099762
-0.087695
-0.033481
-0.023695
-0.010732
0.014862
0.050448
0.099330
0.124155
0.165110
0.198206
0.176771
0.102821
0.086588
0.066467
0.046822
-0.057338
-0.131166
-0.151402
-0.171919
-0.130530
-0.109447
-0.048686
-0.057191
-0.044367
-0.017488
0.036944
0.078871
0.107256
0.143896
0.146911
0.152925
0.156934
0.120416
0.068017
0.015898
-0.019291
-0.061069
-0.089146
-0.110910
-0.126324
-0.121620
-0.118383
-0.104883
-0.061414
-0.003268
0.013791
0.008508
0.044032
0.102229
0.136218
0.142431
0.123744
0.096627
0.034682
-0.032231
-0.040357
-0.090898
-0.118438
-0.131917
-0.111327
-0.065842
-0.089632
-0.062031
-0.001083
0.052188
0.064430
0.119373
0.177759
0.178793
0.174984
0.165216
0.150363
0.110342
0.068031
-0.012016
-0.053476
-0.084652
-0.118469
-0.130891
-0.131483
-0.121002
-0.095818
-0.060359
-0.042187
-0.000478
0.067015
0.102671
0.123646
0.163522
0.150054
0.135213
0.125220
0.101659
0.059509
0.014368
0.000593
-0.033712
-0.063600
-0.061134
-0.034955
-0.003865
0.061302
0.116275
0.149734
0.201409
0.257041
0.314603
0.333294
0.363088
0.404156
0.426895
0.438908
0.446476
0.429732
0.396943
0.363611
0.358565
0.347891
0.337002
0.366374
0.422255
0.497905
0.578601
0.632553
0.697455
0.772478
0.821712
0.845059
0.873361
0.879879
0.862632
0.833082
0.776257
0.713490
0.619421
0.517585
0.439972
0.359618
0.287214
0.238179
0.222159
0.195462
0.174833
0.191882
0.252124
0.290093
0.327698
0.360529
0.358451
0.370714
0.339273
0.274417
0.272359
0.229708
0.202784
0.136093
0.079003
0.049749
0.018777
0.024337
0.002505
-0.007026
0.031830
0.066766
0.098113
0.122554
0.176393
0.197344
0.192258
0.201961
0.199230
0.179296
0.144734
0.062719
0.035200
0.033104
0.021699
-0.017784
-0.031451
-0.043987
-0.044882
-0.030955
-0.008380
0.022698
0.068024
0.127995
0.180344
0.211264
0.184157
0.236523
0.288830
0.228521
0.188495
0.150304
0.111700
0.086446
0.024068
-0.022391
-0.040762
-0.022673
-0.018477
-0.023150
-0.052393
0.020000
0.060514
0.086519
0.137043
0.196967
0.214279
0.212343
0.228127
0.209055
0.187497
0.151991
0.130585
0.070910
0.036288
0.025128
0.031331
0.015228
-0.025152
-0.013058
0.037044
0.070783
0.139950
0.204335
0.250163
0.289942
0.318689
0.303140
0.288548
0.226798
0.201346
0.161939
0.106156
0.077575
0.038186
-0.004539
-0.039716
-0.013878
0.004038
0.006594
0.001105
0.075567
0.147734
0.155932
0.207272
0.234494
0.264551
0.276596
0.270234
0.259976
0.241561
0.222068
0.195836
0.171441
0.106220
0.071093
0.019616
0.057722
0.021698
0.037523
0.060912
0.113787
0.132028
0.152151
0.212737
0.302726
0.373200
0.336954
0.336437
0.293884
0.248697
0.239354
0.203609
0.164725
0.115135
0.067259
0.045239
0.037828
0.074101
0.110837
0.135712
0.156045
0.172127
0.226226
0.301547
0.322947
0.321067
0.352830
0.329471
0.278912
0.275404
0.210699
0.167217
0.169765
0.130614
0.102885
0.100066
0.105995
0.108392
0.086500
0.131204
0.154283
0.215114
0.255859
0.292634
0.349852
0.370587
0.376804
0.355826
0.266252
0.253318
0.231650
0.208323
0.144987
0.119490
0.073968
-0.000351
-0.035923
-0.014671
0.042143
0.138581
0.189379
0.194938
0.243141
0.269274
0.281964
0.299651
0.318722
0.317524
0.297458
0.282432
0.257164
0.158577
0.106896
0.101374
0.053665
0.046031
0.021206
0.024079
0.042886
0.076448
0.118127
0.134494
0.210173
0.236818
0.257789
0.282500
0.277424
0.296587
0.275459
0.226226
0.188528
0.106616
0.081305
0.046794
0.011091
-0.013314
-0.050378
0.020283
0.046718
-0.003786
0.003436
0.128209
0.191863
0.189625
0.228180
0.247595
0.210356
0.201629
0.194815
0.162846
0.149802
0.110999
0.066201
0.034333
0.007815
-0.019295
-0.032092
-0.036882
-0.029841
0.008513
0.071411
0.123160
0.177481
0.203774
0.219400
0.244102
0.245025
0.241899
0.232262
0.211326
0.133848
0.083704
0.018315
-0.043079
-0.054924
-0.098372
-0.082887
-0.059351
-0.038398
-0.010874
0.033300
0.089424
0.125728
0.143555
0.185601
0.210434
0.238007
0.242913
0.219483
0.171785
0.152426
0.137045
0.112474
0.065952
0.053220
0.033160
0.014932
0.011834
0.025893
0.038178
0.070182
0.083346
0.121407
0.197788
0.205403
0.205259
0.214541
0.205339
0.160775
0.129025
0.095070
0.072575
0.056577
0.039321
0.027507
-0.002077
-0.038532
-0.088367
-0.071541
-0.048209
0.068575
0.118430
0.149674
0.159248
0.199899
0.224343
0.250940
0.204539
0.161803
0.100915
0.085504
0.076765
0.029633
0.000198
-0.038801
-0.071263
-0.080654
-0.074468
-0.040935
-0.037382
0.006968
0.077672
0.095358
0.100627
0.150952
0.193004
0.204773
0.193598
0.172247
0.159668
0.092679
0.058961
0.011899
0.000451
0.029117
-0.010388
-0.012145
-0.035206
-0.080660
-0.037567
0.050757
0.095919
0.113953
0.202277
0.177064
0.209476
0.249749
0.271177
0.267196
0.194793
0.128844
0.121897
-0.005282
-0.078146
-0.019196
0.029009
-0.051040
-0.036918
-0.028760
-0.035836
-0.012812
0.057173
0.065606
0.093649
0.177163
0.131975
0.179009
0.214374
0.254297
0.272709
0.190576
0.113229
0.018671
-0.042182
-0.057034
0.024592
-0.003676
-0.024883
-0.016946
0.019365
0.086714
0.124475
0.153874
0.192647
0.207746
0.229675
0.256742
0.235352
0.203535
0.176025
0.132567
0.070953
0.059083
0.037196
0.021606
0.022254
0.009657
-0.064058
-0.041805
-0.026637
0.044594
0.114473
0.174723
0.207812
0.238686
0.253753
0.244985
0.257840
0.263985
0.222871
0.113715
0.062465
0.011011
-0.039497
-0.038621
-0.091720
-0.043908
0.065265
0.097278
0.135500
0.084697
0.129789
0.115379
0.126764
0.168947
0.252300
0.281259
0.260288
0.228877
0.196096
0.164070
0.131272
0.103726
0.063553
0.010246
0.025915
0.029182
-0.015026
-0.005003
0.043099
0.054345
0.090640
0.145274
0.192132
0.238416
0.261372
0.254911
0.248362
0.237725
0.235364
0.192179
0.121860
0.063070
0.064769
0.055754
0.001347
-0.059044
-0.036901
0.006630
0.014391
0.078443
0.103957
0.164542
0.249121
0.186445
0.189427
0.223728
0.186583
0.233468
0.146569
0.061689
0.017243
-0.030112
0.022622
0.054490
-0.025458
-0.035695
-0.062675
-0.020225
-0.002641
0.009386
0.071725
0.076833
0.065136
0.156605
0.282090
0.242031
0.202671
0.183115
0.133887
0.101253
0.059401
0.014264
-0.026482
-0.021297
-0.014576
-0.066464
-0.078762
-0.029520
-0.038006
0.006996
-0.016032
0.050271
0.114624
0.209622
0.215173
0.199628
0.179563
0.187295
0.169417
0.143060
0.088330
0.047810
0.021949
-0.012069
-0.082647
-0.121083
-0.104352
-0.061266
-0.009480
0.043198
0.095329
0.146012
0.150310
0.178480
0.194236
0.190339
0.158352
0.148790
0.114857
0.107427
0.046066
0.016569
-0.001209
-0.060283
-0.107579
-0.120942
-0.097057
-0.092178
-0.051888
-0.006153
0.073261
0.139671
0.183256
0.224901
0.265584
0.206247
0.190186
0.202232
0.230309
0.207763
0.136132
0.112586
0.128688
0.110315
0.075483
0.074954
0.117637
0.141638
0.197672
0.268604
0.335300
0.355451
0.444433
0.564564
0.597825
0.628559
0.683649
0.650123
0.620425
0.584925
0.589757
0.575716
0.584775
0.603488
0.617713
0.641695
0.635718
0.679695
0.712115
0.793212
0.837470
0.858751
0.875772
0.875358
0.827425
0.728764
0.671469
0.594417
0.491193
0.399994
0.335730
0.276337
0.177317
0.101900
0.081692
0.075440
0.034678
0.045282
0.061658
0.100228
0.133031
0.182612
0.206250
0.260615
0.286778
0.277319
0.266721
0.219572
0.165685
0.142377
0.104487
0.048326
0.019189
-0.011272
-0.022785
-0.047057
-0.056989
-0.049562
-0.005073
0.041670
0.107664
0.163152
0.192465
0.222068
0.249721
0.257873
0.258873
0.251508
0.229913
0.164489
0.116537
0.053617
0.047014
0.001401
-0.042149
-0.074621
-0.067886
-0.059549
-0.027130
-0.001997
0.062627
0.111232
0.148206
0.190909
0.210762
0.223347
0.214758
0.193742
0.190583
0.164365
0.103752
0.053328
0.028836
-0.040214
-0.079197
-0.089801
-0.071121
-0.036813
-0.008539
0.048953
0.094836
0.116610
0.151145
0.201406
0.205528
0.227609
0.235245
0.239619
0.158739
0.145452
0.070690
0.020523
-0.002453
-0.023035
-0.078907
-0.064103
-0.038996
-0.015951
0.003398
0.027603
0.061335
0.135050
0.161381
0.202484
0.211250
0.205027
0.209542
0.203847
0.166294
0.121149
0.095221
0.054077
0.017291
-0.001698
-0.008104
-0.035913
-0.032941
0.008544
0.048864
0.079792
0.107525
0.161203
0.195509
0.204394
0.231595
0.241009
0.258552
0.244193
0.218765
0.181652
0.125947
0.085689
0.038077
0.020817
0.004044
0.006293
0.023131
0.043383
0.065267
0.094150
0.146608
0.190667
0.246272
0.259997
0.258672
0.265810
0.254017
0.254375
0.241837
0.203988
0.156515
0.114864
0.094531
0.044923
0.010621
-0.022702
-0.022496
-0.001708
0.040376
0.094986
0.149833
0.196275
0.248381
0.279527
0.265111
0.266938
0.267058
0.257956
0.237740
0.209800
0.174961
0.119435
0.056033
0.022371
0.009369
0.002386
0.012706
0.033187
0.061172
0.109244
0.166026
0.185667
0.198273
0.244941
0.279033
0.299658
0.281529
0.264718
0.218894
0.176785
0.107136
0.068974
0.036920
0.017756
-0.002853
-0.012487
-0.025011
-0.007559
0.023043
0.090630
0.130088
0.157875
0.208190
0.230494
0.258198
0.285491
0.290202
0.251706
0.205302
0.200668
0.156416
0.081965
0.014542
-0.031056
-0.042296
-0.073698
-0.051596
-0.008236
0.012250
0.031715
0.073008
0.122919
0.180008
0.216275
0.223296
0.226355
0.213765
0.204897
0.161853
0.087058
0.047987
0.027512
0.002077
-0.035220
-0.030757
-0.079696
-0.060509
-0.047060
-0.016471
0.013514
0.064177
0.111909
0.150177
0.190631
0.210466
0.230888
0.217682
0.180914
0.153719
0.121936
0.079247
0.043360
-0.004205
-0.048613
-0.096162
-0.098477
-0.061399
-0.026330
-0.022771
0.013839
0.055555
0.097492
0.141751
0.182142
0.204565
0.201540
0.187141
0.168964
0.138561
0.086096
0.042286
0.010529
-0.032041
-0.053006
-0.074244
-0.083618
-0.076421
-0.043270
-0.007100
0.009373
0.035527
0.094197
0.154899
0.175288
0.179947
0.179467
0.186565
0.164377
0.122437
0.099636
0.058152
0.022003
-0.013073
-0.049217
-0.049262
-0.060747
-0.053233
-0.038431
-0.014772
0.021223
0.066442
0.104739
0.141624
0.163764
0.183714
0.190023
0.188744
0.159534
0.139949
0.118958
0.052074
0.007730
-0.024603
-0.052753
-0.079494
-0.086413
-0.055319
-0.025359
0.004711
0.043140
0.090957
0.127650
0.150630
0.180032
0.169645
0.176766
0.179301
0.172581
0.173936
0.120393
0.075940
0.034700
-0.015219
-0.057167
-0.087766
-0.093882
-0.093201
-0.065666
-0.037559
0.012758
0.033151
0.075041
0.109684
0.146137
0.175459
0.184324
0.178281
0.160503
0.139986
0.097533
0.044106
0.008130
-0.032454
-0.059757
-0.086301
-0.096618
-0.091961
-0.065767
-0.038955
-0.001065
0.060235
0.098037
0.133876
0.173295
0.201725
0.206963
0.194065
0.171522
0.140178
0.105785
0.079046
0.038941
-0.003077
-0.029636
-0.048956
-0.057763
-0.058193
-0.050870
-0.016576
0.011059
0.056780
0.088004
0.139602
0.163446
0.185540
0.194172
0.175170
0.148981
0.139143
0.102955
0.055525
-0.007325
-0.052848
-0.059707
-0.069092
-0.070278
-0.075697
-0.052013
-0.004911
0.032700
0.070852
0.110316
0.148609
0.187793
0.212733
0.228137
0.198205
0.170071
0.146205
0.110198
0.056895
0.031035
0.004942
-0.031510
-0.048905
-0.071709
-0.070400
-0.034620
-0.008962
0.028342
0.084405
0.118599
0.154292
0.197699
0.221799
0.237426
0.215842
0.187335
0.157032
0.115800
0.063167
-0.005138
-0.059820
-0.078762
-0.087552
-0.099718
-0.088019
-0.075570
-0.053338
-0.005732
0.036706
0.064652
0.118703
0.143708
0.150022
0.152279
0.152887
0.144884
0.123761
0.100118
0.067237
0.022789
-0.036616
-0.099331
-0.139784
-0.164507
-0.153526
-0.113821
-0.085914
-0.051433
-0.006546
0.027017
0.046799
0.080678
0.115682
0.131124
0.127737
0.098377
0.068300
0.014847
-0.024619
-0.062131
-0.114581
-0.140091
-0.147905
-0.151327
-0.146943
-0.115761
-0.076873
-0.014275
-0.002283
-0.014717
0.038781
0.085445
0.095614
0.107956
0.113678
0.094731
0.067402
0.029149
-0.024506
-0.067048
-0.117083
-0.137461
-0.149231
-0.162362
-0.163086
-0.149872
-0.119321
-0.081846
-0.032567
0.011362
0.048312
0.079807
0.118081
0.130367
0.109878
0.076571
0.051558
0.004671
-0.030387
-0.065051
-0.099219
-0.143799
-0.157567
-0.156085
-0.146468
-0.100440
-0.072429
-0.054391
-0.018039
-0.008139
0.066418
0.101043
0.100203
0.086915
0.083549
0.072143
0.052407
0.021602
-0.034249
-0.071244
-0.089720
-0.116392
-0.116825
-0.100692
-0.082560
-0.038749
-0.005891
0.043075
0.070927
0.139349
0.210059
0.259842
0.318348
0.343635
0.370041
0.387650
0.390253
0.380709
0.361187
0.366534
0.356362
0.352202
0.374879
0.422481
0.443454
0.486390
0.549868
0.645021
0.730039
0.798835
0.806536
0.816471
0.853650
0.848428
0.805618
0.776911
0.723987
0.631984
0.512500
0.405497
0.309572
0.216517
0.157284
0.098617
0.059331
0.043819
0.060705
0.089895
0.089250
0.121086
0.164807
0.185210
0.201364
0.212192
0.203107
0.159404
0.125673
0.099962
0.054199
0.001595
-0.046061
-0.085324
-0.092560
-0.090786
-0.093444
-0.071579
-0.044799
-0.017840
0.017740
0.064195
0.100642
0.127863
0.161930
0.162134
0.146780
0.131471
0.097051
0.063294
0.017469
-0.043258
-0.093995
-0.136132
-0.148718
-0.155940
-0.150666
-0.120222
-0.087839
-0.038408
0.032394
0.066347
0.093480
0.123724
0.151028
0.175299
0.165160
0.138348
0.100203
0.042647
-0.004420
-0.043899
-0.085908
-0.116296
-0.139904
-0.151921
-0.129013
-0.098679
-0.088456
-0.048937
0.014991
0.056883
0.087339
0.102865
0.110557
0.131831
0.134148
0.115100
0.084197
0.059101
0.010288
-0.050366
-0.097739
-0.134933
-0.154680
-0.147132
-0.137153
-0.116651
-0.087550
-0.042648
0.000490
0.054500
0.092192
0.113066
0.130280
0.136985
0.136664
0.131581
0.099334
0.058634
0.023832
-0.002042
-0.054802
-0.090980
-0.108281
-0.106391
-0.097610
-0.075102
-0.040782
-0.006468
0.042977
0.099049
0.137778
0.188337
0.202714
0.194747
0.186465
0.178999
0.148320
0.107377
0.064308
0.010555
-0.037808
-0.071442
-0.079710
-0.077198
-0.080306
-0.076348
-0.038957
-0.001954
0.041797
0.093223
0.152652
0.193378
0.215290
0.214809
0.206967
0.193064
0.174273
0.140804
0.111135
0.066287
0.028310
-0.004181
-0.043287
-0.054526
-0.041819
-0.022668
0.012049
0.047618
0.086509
0.133170
0.188497
0.221679
0.235512
0.254786
0.254200
0.233447
0.194120
0.150511
0.107036
0.049637
0.009920
-0.018734
-0.026840
-0.035004
-0.035183
-0.017614
0.018336
0.059176
0.093066
0.131000
0.167377
0.206868
0.238185
0.241630
0.233080
0.211828
0.194121
0.173510
0.126354
0.054824
0.020881
-0.009403
-0.033470
-0.070079
-0.077911
-0.057189
-0.030171
0.003641
0.056539
0.106326
0.153332
0.166391
0.195869
0.209767
0.215293
0.193081
0.155281
0.117753
0.062961
0.016545
-0.019035
-0.062724
-0.088268
-0.107465
-0.097559
-0.081074
-0.061262
-0.000849
0.049722
0.116547
0.164587
0.193253
0.219280
0.199700
0.172119
0.146292
0.111008
0.082689
0.041483
-0.009610
-0.042292
-0.074914
-0.102941
-0.120042
-0.104544
-0.087879
-0.056129
-0.002732
0.034560
0.068995
0.097124
0.120362
0.143746
0.168951
0.154356
0.138680
0.110382
0.060906
0.013914
-0.038286
-0.069307
-0.099948
-0.136110
-0.151951
-0.129321
-0.103710
-0.082365
-0.041088
-0.000896
0.044157
0.085944
0.122802
0.147723
0.157435
0.149761
0.134317
0.095748
0.059974
0.010149
-0.036069
-0.076789
-0.114545
-0.131615
-0.131306
-0.126607
-0.118392
-0.088116
-0.053233
0.000444
0.052433
0.095465
0.143419
0.170479
0.175766
0.165848
0.150402
0.107796
0.069017
0.026897
-0.007520
-0.058407
-0.116145
-0.135711
-0.132508
-0.118721
-0.097200
-0.070560
-0.043587
0.009859
0.060213
0.113032
0.136268
0.157012
0.170547
0.153565
0.130138
0.097496
0.068616
0.023596
-0.019669
-0.052234
-0.088035
-0.116486
-0.122267
-0.115120
-0.088550
-0.056499
-0.015776
0.025558
0.072251
0.110200
0.139569
0.158948
0.171740
0.186796
0.164524
0.135296
0.099725
0.050817
0.013434
-0.029633
-0.066538
-0.077630
-0.103895
-0.103977
-0.093594
-0.065853
-0.034307
0.000787
0.028554
0.073910
0.110400
0.147370
0.151722
0.148558
0.120996
0.095540
0.055007
0.006674
-0.034356
-0.075272
-0.110533
-0.126515
-0.123766
-0.106338
-0.089891
-0.065462
-0.017460
0.028321
0.084654
0.127974
0.155605
0.165020
0.172487
0.154813
0.138991
0.109811
0.078644
0.038813
-0.020790
-0.076079
-0.104539
-0.117929
-0.141545
-0.148892
-0.126626
-0.086913
-0.042695
0.002174
0.050587
0.087374
0.123291
0.155859
0.165179
0.171335
0.140157
0.112251
0.068748
0.036071
-0.012363
-0.063565
-0.082881
-0.100471
-0.111387
-0.097792
-0.072354
-0.038960
-0.002433
0.042075
0.086778
0.124942
0.181447
0.202303
0.211842
0.197464
0.177022
0.145015
0.121931
0.080441
0.025404
-0.024944
-0.056238
-0.084783
-0.086266
-0.086742
-0.076751
-0.042048
0.000029
0.042555
0.088674
0.141399
0.163866
0.186670
0.187046
0.178424
0.171392
0.140842
0.103502
0.060784
0.009703
-0.022864
-0.058043
-0.064603
-0.067515
-0.061280
-0.039749
-0.013713
0.036832
0.073168
0.120094
0.153758
0.178739
0.197385
0.204817
0.205201
0.179940
0.155375
0.107944
0.068028
0.015164
-0.026002
-0.061517
-0.082977
-0.095821
-0.099522
-0.087794
-0.068096
-0.025275
0.013892
0.056893
0.098157
0.133821
0.166217
0.176484
0.162737
0.138624
0.097781
0.028753
-0.008875
-0.070567
-0.104386
-0.128346
-0.149733
-0.168077
-0.151258
-0.144191
-0.111964
-0.066737
-0.015380
0.029763
0.078272
0.112367
0.143792
0.141015
0.125831
0.095389
0.065700
0.030188
-0.014192
-0.057825
-0.102305
-0.148571
-0.180652
-0.187799
-0.183808
-0.154637
-0.123811
-0.078643
-0.039745
-0.004162
0.045720
0.078490
0.096525
0.112137
0.116210
0.095711
0.056649
0.023058
-0.028535
-0.070910
-0.102414
-0.112911
-0.143222
-0.166481
-0.159869
-0.138832
-0.111740
-0.068018
-0.016950
0.040120
0.087044
0.114076
0.131647
0.134287
0.125955
0.104175
0.072362
0.028679
-0.029908
-0.079711
-0.115597
-0.145777
-0.165748
-0.173616
-0.175540
-0.154242
-0.124264
-0.085576
-0.044157
-0.002175
0.044735
0.086483
0.111424
0.117466
0.117469
0.102270
0.080771
0.042844
0.019550
0.001888
-0.036675
-0.049358
-0.057124
-0.061351
-0.025468
0.002646
0.041594
0.090292
0.154518
0.222090
0.289522
0.353199
0.396278
0.441214
0.467839
0.492723
0.492364
0.484418
0.457853
0.439984
0.421710
0.422603
0.432879
0.456059
0.503396
0.563125
0.620263
0.697090
0.760316
0.797025
0.837948
0.875038
0.884162
0.869969
0.838713
0.779844
0.710674
0.607375
0.503908
0.385615
0.279088
0.193663
0.127249
0.075185
0.044509
0.035393
0.060966
0.093715
0.125108
0.165575
0.195559
0.223375
0.240364
0.230623
0.218284
0.187777
0.153399
0.122638
0.077820
0.028763
-0.018433
-0.063310
-0.090491
-0.103832
-0.094127
-0.079111
-0.055073
-0.017983
0.018410
0.053246
0.089781
0.123256
0.160133
0.164763
0.160411
0.137253
0.104152
0.061937
0.019792
-0.032721
-0.066789
-0.103348
-0.119618
-0.128416
-0.117359
-0.104092
-0.074734
-0.034947
0.006940
0.052548
0.092430
0.128589
0.152561
0.157761
0.149780
0.130184
0.113365
0.055740
0.021597
-0.027848
-0.066487
-0.107910
-0.133089
-0.141016
-0.132192
-0.116051
-0.069380
-0.034290
0.002800
0.052239
0.094742
0.139921
0.157682
0.171613
0.158111
0.148289
0.120062
0.061501
0.019197
-0.016469
-0.044586
-0.085476
-0.108955
-0.124176
-0.115817
-0.088272
-0.042791
-0.009609
0.028270
0.073086
0.118873
0.152267
0.183714
0.199812
0.195327
0.175092
0.137546
0.099725
0.048578
0.000633
-0.034124
-0.068328
-0.097928
-0.107186
-0.092811
-0.068235
-0.033779
0.005479
0.037584
0.077285
0.129249
0.182510
0.197100
0.196515
0.185620
0.169352
0.153294
0.118352
0.072752
0.043084
0.002721
-0.033451
-0.038028
-0.050664
-0.038561
-0.026328
0.006481
0.055264
0.110620
0.152165
0.197763
0.233997
0.253126
0.274959
0.269717
0.238441
0.205052
0.162405
0.121475
0.084650
0.035569
-0.003090
-0.035842
-0.035098
-0.024710
-0.007289
0.019238
0.032096
0.083526
0.154343
0.223094
0.252341
0.263388
0.274120
0.267110
0.248231
0.213073
0.158091
0.123695
0.097096
0.065481
0.015767
-0.006768
-0.014520
-0.003937
0.009527
0.047810
0.076312
0.122818
0.170429
0.205268
0.249247
0.288259
0.283344
0.260354
0.235050
0.201860
0.163863
0.130893
0.084042
0.030682
-0.014310
-0.036937
-0.043376
-0.025099
0.007374
0.048527
0.084228
0.118534
0.152348
0.174761
0.215602
0.246611
0.254195
0.227884
0.212702
0.189590
0.136008
0.081824
0.027900
-0.016624
-0.043006
-0.060829
-0.070046
-0.063307
-0.039175
-0.018942
0.025100
0.076726
0.127575
0.160222
0.182089
0.206974
0.216391
0.193121
0.173869
0.133075
0.095640
0.050930
0.006978
-0.025919
-0.046183
-0.076781
-0.098465
-0.097452
-0.068094
-0.040902
0.004973
0.058962
0.099319
0.134248
0.162956
0.167053
0.157536
0.139036
0.113993
0.080331
0.047476
0.011743
-0.022431
-0.034083
-0.065188
-0.108910
-0.138274
-0.121774
-0.070479
-0.045831
-0.038627
0.001778
0.055361
0.110728
0.172212
0.180431
0.185627
0.172856
0.148406
0.110470
0.054648
0.004539
-0.028801
-0.039554
-0.085813
-0.116811
-0.129493
-0.126962
-0.111715
-0.093083
-0.059863
-0.013128
0.066192
0.103780
0.135603
0.145172
0.138307
0.116334
0.111463
0.124178
0.071499
0.015641
-0.021734
-0.069217
-0.106966
-0.127266
-0.107508
-0.083379
-0.077978
-0.069159
-0.046233
-0.034875
-0.002617
0.038873
0.055589
0.075181
0.075052
0.055061
0.020071
-0.008995
-0.045387
-0.058278
-0.053729
-0.049335
-0.077584
-0.136682
-0.152683
-0.167995
-0.163362
-0.141714
-0.109585
-0.069754
-0.041774
-0.031513
0.008150
0.078472
0.115160
0.099016
0.016117
-0.037289
-0.012070
0.036755
0.007277
-0.018587
-0.050024
-0.054371
-0.096383
-0.105258
-0.096306
-0.076279
0.014102
0.070599
0.128700
0.167138
0.158186
0.185957
0.196994
0.175507
0.152040
0.141235
0.084091
0.043561
-0.006474
-0.015972
-0.023315
-0.029648
-0.039755
-0.055536
-0.048521
-0.016899
0.015600
0.039735
0.117177
0.172645
0.213589
0.219176
0.214792
0.170594
0.132492
0.119764
0.103364
0.059518
-0.008212
-0.055120
-0.095979
-0.134878
-0.147405
-0.156179
-0.157144
-0.125329
-0.085740
-0.005741
0.087554
0.111250
0.167836
0.185356
0.174814
0.134786
0.111808
0.083515
0.042950
0.000613
-0.040212
-0.097613
-0.143747
-0.161357
-0.168826
-0.178720
-0.161798
-0.142043
-0.084315
0.008284
0.077397
0.098194
0.105451
0.108560
0.153523
0.169623
0.103324
0.080844
0.069191
0.040656
0.024664
-0.042594
-0.112593
-0.149689
-0.154230
-0.084260
-0.040808
-0.002450
0.030793
0.031388
0.001440
0.055781
0.165652
0.231807
0.230774
0.201009
0.132060
0.119074
0.109775
0.049937
-0.000452
-0.075716
-0.156390
-0.210062
-0.216854
-0.169545
-0.092847
-0.025790
0.036094
0.071276
0.064904
0.075214
0.112888
0.155504
0.136523
0.132783
0.185756
0.188541
0.171444
0.075111
-0.028957
-0.095750
-0.148589
-0.112541
-0.022969
-0.034170
-0.030552
-0.039757
-0.048520
-0.028752
0.047536
0.119709
0.205064
0.159207
0.147998
0.138926
0.136754
0.133776
0.102323
0.075090
-0.007502
-0.070450
-0.073457
-0.090304
-0.109617
-0.118742
-0.113522
-0.087850
-0.074579
0.020564
0.078655
0.046166
0.024351
0.100260
0.161210
0.144658
0.107754
0.056056
0.003886
-0.044197
-0.097559
-0.186280
-0.229832
-0.268819
-0.267144
-0.140920
-0.113921
-0.118232
-0.098424
-0.036733
0.003067
0.014449
0.027423
0.094960
0.151540
0.153196
0.117061
0.062203
0.031835
-0.025901
-0.078218
-0.185103
-0.225206
-0.235297
-0.178819
-0.172037
-0.183015
-0.162398
-0.141706
-0.128967
-0.155087
-0.101701
0.036403
0.090841
0.068490
0.030727
0.019481
-0.008841
-0.051521
-0.098245
-0.122509
-0.179663
-0.134979
-0.131295
-0.161578
-0.168080
-0.082848
-0.085606
-0.042130
0.018088
0.008414
0.071009
0.085169
0.118216
0.166992
0.127417
0.040563
0.024621
-0.032058
-0.082736
-0.165141
-0.213343
-0.183697
-0.204247
-0.244507
-0.260415
-0.295446
-0.211904
-0.078019
0.019055
0.063966
0.083047
0.155886
0.164171
0.074580
0.048838
0.090763
0.147587
0.171742
0.120205
0.053840
0.015656
-0.033714
0.000897
0.009773
0.057154
0.082479
0.078377
0.145430
0.211574
0.297033
0.483006
0.614846
0.686594
0.696094
0.639000
0.656459
0.641161
0.620915
0.587276
0.605830
0.600586
0.625691
0.684347
0.667825
0.631491
0.612270
0.603072
0.627287
0.657382
0.676156
0.653834
0.596421
0.557414
0.442315
0.465245
0.431329
0.301266
0.199736
0.169217
0.129832
0.039279
-0.016293
-0.056140
-0.061499
-0.034074
-0.047354
-0.066638
-0.062093
-0.021615
-0.012208
0.002177
0.063092
0.103414
0.043874
0.073883
0.131487
0.169913
0.221389
0.145776
0.059797
-0.041242
-0.085988
-0.190324
-0.209840
-0.178657
-0.193337
-0.188865
-0.174729
-0.102175
-0.110783
0.013885
0.078428
0.092506
0.080880
0.118210
0.033373
-0.020308
-0.020566
-0.009975
-0.033359
-0.151653
-0.176742
-0.141405
-0.137287
-0.099278
-0.103008
-0.089435
-0.117865
-0.049245
0.036778
0.019838
0.054421
0.076714
0.079619
0.061618
0.109794
0.116508
0.032833
-0.046727
-0.105441
-0.120191
-0.155527
-0.196297
-0.190589
-0.163511
-0.186414
-0.150843
-0.109746
-0.030130
0.052584
0.062638
0.057993
0.056418
0.104829
0.114700
0.064980
-0.030282
-0.002194
-0.030391
-0.058184
-0.105727
-0.167044
-0.181937
-0.226602
-0.212703
-0.152485
-0.107785
-0.058324
-0.046321
0.049534
0.071622
0.056897
0.032208
-0.011257
-0.007592
0.070782
0.066180
-0.036283
-0.210812
-0.170545
-0.176384
-0.284509
-0.218106
-0.087819
0.013110
0.111752
0.141261
0.095987
0.135828
0.142020
0.135642
0.158487
0.192030
0.199647
0.206223
0.181402
0.121944
0.081148
-0.013732
-0.062396
-0.066621
-0.065356
-0.075942
-0.135034
-0.147047
-0.158026
-0.141978
0.001023
0.079501
0.085215
0.151157
0.158824
0.130932
0.153308
0.188638
0.199675
0.135863
0.080841
0.037198
-0.001971
-0.010205
-0.059820
-0.104396
-0.107938
-0.157468
-0.216712
-0.223732
-0.092232
-0.067099
0.078489
0.235037
0.275913
0.334423
0.284685
0.265382
0.231122
0.188726
0.153369
0.111297
0.083933
0.014726
-0.096285
-0.106095
-0.093814
-0.096527
-0.056329
-0.008217
0.042042
0.075539
0.151016
0.165405
0.203219
0.157042
0.204838
0.262141
0.194790
0.110001
0.094780
0.035586
0.032803
-0.032042
-0.129360
-0.161609
-0.143633
-0.162269
-0.109633
-0.073166
-0.028647
0.040878
0.069946
0.075956
0.132336
0.179952
0.093007
0.045489
0.053405
0.029474
0.000662
-0.082731
-0.132870
-0.146628
-0.172357
-0.206678
-0.268355
-0.318022
-0.224982
-0.104375
-0.101205
-0.074231
0.054826
0.168298
0.245304
0.249233
0.266573
0.267541
0.184878
0.128005
0.066598
-0.038729
-0.113182
-0.142938
-0.163218
-0.210201
-0.210642
-0.208933
-0.237747
-0.202155
-0.147882
-0.095704
-0.041253
-0.022259
-0.027639
0.002217
0.107714
0.162018
0.162064
0.082092
0.054811
0.014854
-0.059800
-0.147465
-0.194071
-0.221565
-0.204136
-0.179965
-0.184849
-0.160722
-0.108211
-0.079647
-0.057538
-0.023257
0.020928
-0.008840
-0.013629
0.053559
0.099684
0.087466
0.074875
0.003471
-0.082774
-0.146480
-0.211998
-0.241686
-0.230533
-0.169723
-0.181947
-0.216218
-0.119943
-0.023860
-0.013565
0.074630
0.108102
0.112831
0.106806
0.060693
0.045770
-0.015315
-0.087718
-0.090576
-0.052683
-0.064184
-0.139180
-0.208272
-0.228027
-0.193630
-0.219430
-0.241013
-0.200850
-0.141514
-0.070355
0.023898
0.070765
0.086263
0.068994
0.087960
0.063199
-0.006943
-0.140570
-0.142932
-0.081459
-0.047010
-0.046233
-0.103852
-0.151667
-0.182487
-0.172959
-0.123853
-0.090574
-0.047147
0.004700
0.004234
0.054224
0.124193
0.130921
0.115624
0.057891
0.070134
0.047127
-0.028145
-0.059039
-0.087257
-0.151121
-0.256427
-0.319684
-0.266023
-0.208995
-0.189538
-0.152538
-0.073651
-0.052105
-0.025565
0.081001
0.098435
0.135164
0.101373
0.073156
0.038217
-0.047985
-0.109559
-0.139858
-0.191173
-0.190685
-0.177372
-0.131615
-0.135075
-0.156021
-0.182505
-0.154449
-0.088008
-0.099993
-0.057851
0.034490
0.067151
0.076602
0.096620
0.066623
0.059536
0.008883
-0.050047
-0.101495
-0.144619
-0.170564
-0.204639
-0.241104
-0.239473
-0.175761
-0.118580
-0.039820
0.004330
0.033517
0.072812
0.097447
0.084644
0.138302
0.148988
0.075193
-0.009116
-0.067041
-0.032251
-0.021815
-0.121917
-0.166080
-0.172842
-0.231361
-0.268318
-0.214679
-0.148434
-0.060792
-0.002177
0.079945
0.130072
0.138410
0.105279
0.107081
0.115685
0.145468
0.116666
0.014667
-0.030261
-0.112254
-0.189709
-0.213173
-0.244706
-0.215598
-0.212458
-0.171202
-0.114601
-0.107609
-0.052349
-0.037682
0.025359
0.094723
0.136586
0.166466
0.184286
0.148103
0.104731
0.039069
0.001954
-0.005988
-0.085971
-0.145086
-0.176190
-0.204998
-0.176750
-0.169695
-0.127876
-0.097915
-0.034918
0.049245
0.070710
0.021331
0.011829
0.079075
0.034484
0.073357
0.099914
0.043668
-0.013163
-0.094870
-0.147101
-0.171993
-0.227179
-0.199743
-0.188626
-0.138822
-0.109706
-0.092916
-0.070117
-0.029052
-0.015465
-0.030140
0.018591
0.054784
0.047164
-0.015572
-0.048929
-0.041641
-0.071799
-0.139719
-0.186513
-0.210795
-0.229712
-0.209030
-0.194778
-0.161128
-0.190393
-0.177628
-0.130967
-0.077681
-0.015838
0.077743
0.117461
0.127784
0.128007
0.093029
0.007788
-0.019062
-0.028032
-0.089670
-0.157826
-0.201250
-0.259534
-0.303628
-0.261837
-0.248769
-0.234996
-0.129612
-0.076651
-0.084076
-0.083068
-0.029146
-0.010707
0.026169
0.048282
0.077923
0.019072
-0.053595
-0.082321
-0.122334
-0.181874
-0.230414
-0.232284
-0.209287
-0.163367
-0.169203
-0.140096
-0.118111
-0.126680
-0.115503
-0.079710
-0.081553
0.008831
0.063421
0.037613
0.017451
0.049847
0.047613
-0.010700
-0.062463
-0.133885
-0.194859
-0.226065
-0.252519
-0.301718
-0.292395
-0.217395
-0.148526
-0.064101
-0.002466
0.044944
0.099548
0.135501
0.177523
0.207858
0.182674
0.169942
0.148114
0.131115
0.044181
-0.079530
-0.012169
0.104282
0.154989
0.205493
0.237144
0.288424
0.364263
0.458448
0.511791
0.567981
0.659080
0.729328
0.764934
0.749147
0.782130
0.802861
0.759383
0.719580
0.658621
0.650290
0.591759
0.568375
0.538231
0.503079
0.465744
0.415319
0.387547
0.340554
0.327805
0.316092
0.362636
0.322258
0.272366
0.268710
0.176899
0.171792
0.162378
0.083358
0.051824
0.003755
-0.081717
-0.139359
-0.101429
-0.132944
-0.172665
-0.194052
-0.098799
-0.028267
-0.024911
0.040247
0.116759
0.158647
0.187643
0.129451
0.088105
0.061927
0.013075
-0.020697
-0.061058
-0.120316
-0.134918
-0.157602
-0.175752
-0.174862
-0.166089
-0.152246
-0.149812
-0.147660
-0.084965
0.013933
-0.000155
0.050435
0.162807
0.199496
0.163331
0.114338
0.068866
0.013063
-0.122782
-0.211563
-0.240304
-0.238701
-0.198770
-0.174502
-0.146620
-0.125196
-0.069442
-0.021327
0.021360
0.086404
0.070305
0.048203
0.058988
0.029166
0.027984
0.046611
0.030560
-0.020482
-0.075646
-0.158752
-0.220285
-0.300583
-0.343826
-0.250431
-0.152604
-0.087440
-0.086101
-0.170481
-0.119354
0.074960
0.228475
0.225071
0.169795
0.111975
0.036198
0.008099
-0.003916
-0.010378
-0.058647
-0.101849
-0.111301
-0.084898
-0.083590
-0.084903
-0.083159
-0.103813
-0.086552
-0.047410
-0.110806
-0.078219
0.018947
0.137806
0.205305
0.249076
0.177492
0.055958
-0.038681
-0.042643
-0.033139
-0.102658
-0.160685
-0.159856
-0.094748
-0.116878
-0.090656
-0.032064
-0.019116
0.023421
0.073042
0.101215
0.124197
0.153660
0.164808
0.189700
0.161120
0.085531
0.069741
0.055741
-0.003937
-0.043542
-0.111675
-0.160631
-0.166479
-0.129614
-0.054140
-0.018883
-0.000341
0.070375
0.139962
0.180576
0.204140
0.226345
0.202462
0.210280
0.174328
0.158609
0.147708
0.059962
-0.056990
-0.119959
-0.169512
-0.130465
-0.051837
-0.029422
-0.041834
-0.088101
-0.022427
0.058255
0.140340
0.195212
0.213648
0.232298
0.246236
0.239758
0.198444
0.146858
0.115738
0.079025
0.044745
0.014072
-0.061719
-0.094437
-0.057358
-0.056667
-0.033374
-0.039621
-0.036981
0.020653
0.065415
0.129517
0.219429
0.220191
0.169190
0.152137
0.134505
0.097806
0.117544
0.056021
-0.024492
-0.039309
-0.094576
-0.174297
-0.112142
-0.060072
-0.079927
-0.052292
-0.010382
0.003745
-0.014184
0.000017
0.026911
0.049107
0.069100
0.136171
0.183708
0.212715
0.117476
0.007187
-0.036020
-0.077917
-0.128535
-0.115219
-0.087573
-0.112171
-0.108513
-0.103568
-0.080809
-0.019863
0.065256
0.177631
0.176953
0.120641
0.112087
0.056870
0.017633
-0.022739
-0.024756
0.036672
0.038994
-0.043325
-0.123106
-0.217519
-0.244280
-0.208510
-0.175069
-0.129826
-0.065091
-0.019787
0.009758
0.045135
0.111261
0.134011
0.149670
0.163426
0.175606
0.144912
0.113720
0.064537
-0.022415
-0.061073
-0.101815
-0.182783
-0.191159
-0.187854
-0.164525
-0.196406
-0.135646
-0.078945
-0.012020
0.052769
0.095918
0.101673
0.121822
0.072977
0.045879
0.048062
-0.023530
-0.072466
-0.116478
-0.104766
-0.112279
-0.100579
-0.133847
-0.128393
-0.094609
-0.068139
-0.045998
-0.049011
-0.048995
-0.034626
0.029581
0.064665
0.095646
0.095653
0.121870
0.082036
0.004297
-0.078782
-0.078620
-0.116613
-0.161904
-0.190598
-0.161910
-0.127418
-0.115670
-0.100670
-0.078087
0.017901
0.089500
0.095517
0.124487
0.147700
0.131656
0.116168
0.099911
0.065145
0.024465
-0.030784
-0.075742
-0.105468
-0.121955
-0.150350
-0.169759
-0.171924
-0.141260
-0.100681
-0.058307
-0.032112
-0.004695
0.043996
0.074255
0.094485
0.138105
0.160461
0.164522
0.080072
0.006619
-0.019634
-0.027913
-0.071252
-0.118566
-0.148840
-0.177450
-0.191015
-0.161384
-0.124819
-0.085176
-0.037090
0.031117
0.057461
0.083875
0.125397
0.136307
0.137482
0.114313
0.087966
0.045802
0.018973
-0.002438
-0.070147
-0.150957
-0.188783
-0.181434
-0.163506
-0.183527
-0.185775
-0.083027
-0.032567
-0.008910
0.030139
0.041820
0.052402
0.097552
0.123856
0.105895
0.077556
0.015332
-0.040263
-0.088616
-0.114657
-0.131192
-0.130115
-0.151091
-0.158885
-0.158412
-0.146989
-0.080261
-0.023344
0.051844
0.070849
0.109380
0.101842
0.119444
0.109993
0.074994
0.029574
-0.021737
-0.083397
-0.102552
-0.137819
-0.162163
-0.167987
-0.166578
-0.184318
-0.165355
-0.157223
-0.125776
-0.047782
0.014721
0.059508
0.090031
0.112617
0.090097
0.086278
0.069724
0.043475
0.018726
-0.029234
-0.075048
-0.127110
-0.175041
-0.183960
-0.184710
-0.165260
-0.121788
-0.112710
-0.110930
-0.046060
0.023363
0.049332
0.098985
0.123681
0.110693
0.083029
0.106171
0.092903
0.087064
0.042149
-0.058626
-0.113415
-0.126275
-0.148372
-0.168838
-0.163599
-0.148920
-0.120084
-0.070118
-0.035336
0.011127
0.071836
0.109250
0.156996
0.164562
0.155133
0.126266
0.071883
0.035414
0.009638
-0.026569
-0.087959
-0.153000
-0.175732
-0.172283
-0.151972
-0.137113
-0.081225
-0.030834
0.024212
0.082204
0.125466
0.148608
0.154143
0.178372
0.175088
0.133030
0.071976
0.042056
-0.021161
-0.058060
-0.105332
-0.138059
-0.205174
-0.218698
-0.172498
-0.098494
-0.060937
-0.035005
-0.016901
0.031107
0.092668
0.130907
0.180600
0.187072
0.142126
0.093487
0.051783
0.024722
0.007653
-0.019151
-0.059965
-0.097715
-0.124778
-0.147760
-0.156049
-0.128078
-0.092903
-0.053648
-0.015619
0.010113
0.042394
0.070551
0.078007
0.096119
0.067199
0.036938
0.016437
0.002485
-0.032114
-0.053286
-0.099767
-0.151760
-0.156022
-0.154235
-0.175232
-0.164152
-0.155311
-0.147943
-0.130705
-0.080100
-0.027090
0.037529
0.071609
0.086600
0.090079
0.080179
0.035645
-0.008538
-0.036251
-0.064285
-0.114221
-0.142043
-0.174007
-0.218592
-0.209919
-0.185842
-0.136902
-0.090528
-0.058154
-0.003979
0.038018
0.038780
0.067085
0.048259
0.034132
0.053127
0.004726
-0.046784
-0.077794
-0.105559
-0.156567
-0.206113
-0.254445
-0.241497
-0.226432
-0.216617
-0.167897
-0.106041
-0.078742
-0.022608
-0.005423
0.029899
0.063099
0.100684
0.107757
0.109562
0.074703
0.013171
-0.035279
-0.071985
-0.108577
-0.155760
-0.172155
-0.199020
-0.198730
-0.178960
-0.140151
-0.116219
-0.076023
-0.010966
0.042261
0.106484
0.139723
0.136416
0.143478
0.155054
0.145781
0.100051
0.038202
0.063114
0.044648
0.026002
0.008403
0.044474
0.064104
0.119261
0.173333
0.244334
0.311559
0.420399
0.489918
0.536656
0.595642
0.640643
0.711056
0.736629
0.749002
0.754508
0.728365
0.694867
0.692858
0.663439
0.606607
0.542965
0.542790
0.523688
0.504770
0.509596
0.467095
0.452052
0.459082
0.433357
0.418900
0.378910
0.339659
0.285868
0.232164
0.166838
0.090089
0.028505
-0.044044
-0.089107
-0.113339
-0.088374
-0.021253
-0.039573
-0.077602
-0.070251
-0.011132
0.043797
0.077515
0.103299
0.168175
0.167334
0.125735
0.123632
0.092421
0.011200
-0.034850
-0.050977
-0.099294
-0.143475
-0.151874
-0.111345
-0.112689
-0.118191
-0.099226
-0.054314
0.007516
0.024187
0.053617
0.077108
0.104365
0.107151
0.104383
0.091743
0.066168
0.023086
-0.025622
-0.054615
-0.108264
-0.158532
-0.181645
-0.230194
-0.219693
-0.182665
-0.137023
-0.110791
-0.043068
0.015101
0.076804
0.113662
0.112963
0.123576
0.123234
0.113392
0.083547
0.060635
-0.012136
-0.059117
-0.069367
-0.089930
-0.122484
-0.148441
-0.183987
-0.183608
-0.125236
-0.059403
0.013070
0.063034
0.104811
0.147113
0.154059
0.130532
0.125810
0.111291
0.073724
0.023670
-0.053186
-0.057585
-0.074210
-0.099137
-0.149321
-0.145497
-0.127871
-0.128290
-0.094849
-0.049054
0.034297
0.061666
0.127086
0.173402
0.183164
0.166481
0.140554
0.136226
0.108584
0.082228
0.029131
-0.005403
-0.086162
-0.085597
-0.088338
-0.105974
-0.083646
-0.069086
-0.040750
-0.029844
0.020206
0.058238
0.103014
0.145206
0.196047
0.209116
0.188193
0.188542
0.160250
0.125423
0.033310
-0.000471
-0.040263
-0.046633
-0.070029
-0.085697
-0.077537
-0.057916
-0.010974
0.034645
0.091015
0.142626
0.180159
0.226031
0.240500
0.231123
0.246557
0.256772
0.217243
0.177357
0.123772
0.060967
0.012371
-0.040748
-0.060742
-0.050927
-0.048518
-0.024453
0.014147
0.053152
0.092468
0.111717
0.158946
0.204055
0.233645
0.251919
0.242657
0.237674
0.193286
0.169454
0.099603
0.078353
0.020317
-0.006711
-0.059692
-0.076598
-0.061119
-0.027895
0.009895
0.028825
0.082029
0.135808
0.184385
0.193261
0.216322
0.222585
0.235563
0.205503
0.171390
0.142260
0.113308
0.052439
0.009206
-0.026743
-0.043197
-0.046131
-0.048437
-0.023515
0.012628
0.022610
0.065170
0.102153
0.120070
0.164888
0.187867
0.212786
0.225924
0.215809
0.151887
0.092906
0.069089
0.022831
-0.033252
-0.068682
-0.102729
-0.103107
-0.123166
-0.067823
-0.026664
-0.003781
0.025825
0.057472
0.095569
0.114019
0.155017
0.151856
0.163704
0.144306
0.105030
0.071935
0.046654
0.009788
-0.049521
-0.081807
-0.127276
-0.164991
-0.182679
-0.140258
-0.084836
-0.037527
0.018651
0.063636
0.136188
0.151207
0.186557
0.181761
0.164534
0.124941
0.081421
0.028295
-0.023601
-0.044140
-0.064821
-0.105160
-0.163361
-0.210872
-0.163918
-0.111841
-0.071957
-0.040961
0.018840
0.055717
0.093958
0.132913
0.168113
0.192397
0.184100
0.127336
0.109840
0.062117
0.021308
-0.019981
-0.056316
-0.087647
-0.111076
-0.123980
-0.133938
-0.128150
-0.110611
-0.079275
-0.035754
0.046331
0.089709
0.115198
0.158777
0.181765
0.168180
0.143061
0.120726
0.082558
0.014715
-0.024469
-0.065271
-0.087315
-0.136142
-0.158970
-0.166381
-0.129847
-0.090971
-0.041729
0.033785
0.083015
0.114398
0.151155
0.187369
0.206459
0.173772
0.147483
0.104076
0.074183
0.037664
-0.020348
-0.052106
-0.070028
-0.105091
-0.125098
-0.131161
-0.122298
-0.095300
-0.061792
-0.017569
0.063366
0.143402
0.167514
0.197952
0.191218
0.177306
0.159056
0.116615
0.060522
0.016315
-0.053280
-0.077142
-0.123919
-0.134574
-0.139421
-0.140235
-0.103902
-0.085234
-0.065694
-0.012141
0.060840
0.111643
0.141275
0.174427
0.200382
0.173904
0.154155
0.121540
0.082821
0.026449
0.003836
-0.032510
-0.073528
-0.083994
-0.101740
-0.084802
-0.053677
-0.039424
-0.008255
0.043852
0.063830
0.086080
0.117044
0.153816
0.167043
0.168992
0.150672
0.101935
0.060406
0.010856
-0.039455
-0.086497
-0.116843
-0.144441
-0.140334
-0.146461
-0.107961
-0.070057
-0.011951
0.028961
0.062526
0.117486
0.159637
0.193758
0.219191
0.209287
0.158050
0.123965
0.084139
0.029958
-0.030795
-0.098493
-0.137295
-0.161196
-0.157240
-0.139693
-0.122171
-0.082666
-0.029208
0.016152
0.068828
0.108856
0.149099
0.172346
0.171494
0.180999
0.173833
0.163419
0.102068
0.033732
-0.030634
-0.055311
-0.102732
-0.153341
-0.140311
-0.144453
-0.127713
-0.082493
-0.041259
0.008878
0.044375
0.071962
0.110668
0.136266
0.156195
0.154475
0.147862
0.125567
0.100088
0.039086
-0.008739
-0.052437
-0.089754
-0.119290
-0.136166
-0.133622
-0.120973
-0.105495
-0.056746
0.016529
0.060919
0.091966
0.149674
0.178959
0.188714
0.182895
0.147200
0.097422
0.058529
0.002792
-0.049753
-0.069325
-0.101973
-0.109386
-0.099658
-0.107045
-0.085382
-0.069489
-0.037001
0.026916
0.086848
0.116302
0.127204
0.126029
0.158286
0.165584
0.150890
0.121611
0.081504
0.029172
-0.036116
-0.077928
-0.103192
-0.122372
-0.126582
-0.130042
-0.121270
-0.101307
-0.045993
0.026948
0.066522
0.129885
0.177772
0.206590
0.212898
0.188665
0.177701
0.143196
0.107800
0.066037
0.004267
-0.052316
-0.107925
-0.124422
-0.128554
-0.129701
-0.105746
-0.075179
-0.021230
0.058285
0.108717
0.145201
0.176894
0.206580
0.226417
0.208220
0.172986
0.147320
0.124448
0.082517
0.024861
-0.015873
-0.050067
-0.046117
-0.067418
-0.077906
-0.048423
-0.018594
0.013113
0.058111
0.103415
0.146898
0.197416
0.217555
0.240005
0.245846
0.215194
0.176646
0.145934
0.110261
0.064074
0.000745
-0.026781
-0.065804
-0.071327
-0.081342
-0.064226
-0.043259
0.011618
0.057997
0.099206
0.132730
0.187430
0.223456
0.242602
0.238362
0.205163
0.150804
0.097393
0.033388
-0.008270
-0.054954
-0.110403
-0.147520
-0.152184
-0.158044
-0.128880
-0.099798
-0.045810
0.006890
0.061160
0.127959
0.171195
0.208309
0.206834
0.184252
0.165725
0.107345
0.067137
0.017628
-0.011595
-0.060062
-0.078351
-0.117936
-0.137808
-0.143786
-0.117986
-0.090332
-0.043125
0.014230
0.070685
0.107332
0.135512
0.142432
0.147781
0.158800
0.138600
0.113269
0.063084
0.018524
-0.017934
-0.064575
-0.091313
-0.107040
-0.124212
-0.153751
-0.139682
-0.095819
-0.044744
0.001931
0.046525
0.085302
0.129623
0.140175
0.148287
0.134420
0.103537
0.073198
0.042035
-0.014535
-0.063780
-0.088401
-0.109625
-0.129774
-0.129608
-0.126537
-0.120895
-0.092750
-0.057356
-0.001908
0.062398
0.114491
0.155684
0.180254
0.173215
0.178860
0.156485
0.134633
0.080349
0.032883
-0.025909
-0.106219
-0.157385
-0.192116
-0.207037
-0.195162
-0.167840
-0.122088
-0.064670
-0.009368
0.054048
0.136350
0.171978
0.198358
0.224703
0.247667
0.265013
0.263657
0.197946
0.154051
0.121336
0.106059
0.088821
0.078943
0.100926
0.132225
0.179411
0.261025
0.340413
0.436945
0.512560
0.558323
0.613032
0.651896
0.690900
0.727804
0.737696
0.750803
0.746434
0.727461
0.718117
0.719812
0.673926
0.628937
0.624904
0.607001
0.618266
0.613874
0.640670
0.662062
0.643976
0.629577
0.574732
0.547562
0.534204
0.492628
0.408331
0.294194
0.217575
0.144508
0.077792
0.018435
-0.008827
-0.021448
-0.025384
-0.022099
-0.013339
0.019433
0.048535
0.090586
0.133889
0.179487
0.225528
0.238158
0.241581
0.218723
0.200239
0.162202
0.105365
0.051553
-0.009222
-0.052217
-0.073281
-0.089213
-0.119924
-0.119437
-0.086115
-0.064118
-0.002660
0.033615
0.081325
0.125776
0.152069
0.170562
0.198380
0.184040
0.155679
0.119347
0.081473
0.023884
-0.013725
-0.064924
-0.116539
-0.150452
-0.152823
-0.122885
-0.086809
-0.071512
-0.021057
0.020708
0.072455
0.107942
0.130881
0.135643
0.143472
0.149544
0.149087
0.111697
0.076380
0.036233
-0.016134
-0.052163
-0.090900
-0.131360
-0.116022
-0.118642
-0.092324
-0.058409
0.004577
0.028031
0.086828
0.122550
0.162623
0.179335
0.202412
0.168734
0.170437
0.137379
0.088880
0.055470
-0.012007
-0.056715
-0.082115
-0.098820
-0.117459
-0.099522
-0.080806
-0.051535
0.021566
0.073863
0.120294
0.169632
0.178306
0.192842
0.180172
0.177064
0.160455
0.168676
0.125248
0.094465
0.032828
-0.000805
-0.037283
-0.088699
-0.132423
-0.113886
-0.066251
-0.030734
-0.008639
0.044822
0.093546
0.139578
0.194679
0.226185
0.245085
0.235704
0.205981
0.185759
0.139841
0.070952
0.008524
-0.003274
-0.028279
-0.044768
-0.037354
-0.048939
-0.045480
0.016020
0.063862
0.107676
0.142847
0.184344
0.214121
0.235500
0.250481
0.254230
0.226473
0.196706
0.141585
0.112623
0.106472
0.089688
0.058155
0.006430
-0.006327
-0.004207
0.026594
0.052483
0.079712
0.106437
0.170891
0.221553
0.252933
0.294338
0.314303
0.308461
0.283930
0.241864
0.191262
0.131614
0.066100
0.024509
-0.013623
-0.021357
-0.029983
-0.040432
-0.010254
0.025065
0.088459
0.153231
0.186183
0.212431
0.231766
0.234228
0.236274
0.228314
0.218478
0.189930
0.152600
0.112796
0.079299
0.040078
-0.002011
-0.029855
-0.031130
-0.025500
-0.003430
0.003981
0.044450
0.103151
0.140607
0.168482
0.201357
0.225338
0.255589
0.245373
0.214486
0.183903
0.135962
0.094678
0.037831
-0.017688
-0.054686
-0.082652
-0.092409
-0.091296
-0.067570
-0.037056
0.017014
0.059688
0.111666
0.138927
0.180521
0.197472
0.209724
0.183070
0.176003
0.134759
0.103961
0.044569
-0.002040
-0.049758
-0.108329
-0.156053
-0.188819
-0.160193
-0.112774
-0.074469
-0.025066
0.019330
0.068893
0.122128
0.155022
0.173352
0.173892
0.180251
0.147120
0.089806
0.053911
0.004322
-0.039326
-0.089838
-0.124317
-0.136751
-0.125409
-0.116932
-0.105262
-0.072700
-0.042400
-0.003755
0.051893
0.092482
0.119527
0.133679
0.150219
0.167466
0.133239
0.101352
0.060166
0.014112
-0.019009
-0.078741
-0.101701
-0.130783
-0.159970
-0.180019
-0.161492
-0.095034
-0.039199
0.020996
0.073674
0.118904
0.141717
0.148379
0.138200
0.150040
0.127611
0.106937
0.073417
0.022534
-0.017155
-0.035410
-0.077361
-0.130635
-0.156292
-0.162209
-0.138268
-0.099710
-0.037642
0.014709
0.049062
0.100693
0.140798
0.181560
0.178551
0.151920
0.117211
0.108349
0.097197
0.035363
-0.030036
-0.085519
-0.133238
-0.160459
-0.185522
-0.169400
-0.135690
-0.097478
-0.052292
-0.019013
0.030781
0.072329
0.125046
0.156607
0.176656
0.169986
0.137773
0.095742
0.036383
-0.006423
-0.034970
-0.081864
-0.121025
-0.144041
-0.131744
-0.117721
-0.089722
-0.062711
-0.032619
-0.000695
0.058122
0.112071
0.152097
0.167811
0.155598
0.154519
0.139655
0.114519
0.092136
0.023820
-0.045061
-0.092277
-0.124606
-0.151831
-0.172581
-0.161713
-0.148904
-0.096400
-0.063313
-0.019356
0.034896
0.069613
0.098995
0.128400
0.153560
0.151813
0.129625
0.107213
0.063675
0.010342
-0.050973
-0.085330
-0.118962
-0.135922
-0.149699
-0.144378
-0.124884
-0.093280
-0.045648
-0.008412
0.037376
0.071524
0.113751
0.134434
0.157569
0.142810
0.131662
0.072753
0.010051
-0.047298
-0.096840
-0.125217
-0.140115
-0.147491
-0.180873
-0.171666
-0.167487
-0.123204
-0.040164
0.019133
0.044273
0.072725
0.114078
0.132551
0.138314
0.135709
0.116646
0.071588
0.031587
-0.017431
-0.061074
-0.110148
-0.133261
-0.164279
-0.185924
-0.170109
-0.153734
-0.111291
-0.069937
-0.025210
0.020548
0.058726
0.084807
0.101447
0.109672
0.117482
0.093917
0.068308
0.010131
-0.014706
-0.048421
-0.111392
-0.153252
-0.181542
-0.184112
-0.180036
-0.178755
-0.145263
-0.096111
-0.049132
0.005981
0.068012
0.104220
0.138360
0.145340
0.121427
0.111190
0.062359
0.018988
-0.021106
-0.059855
-0.112258
-0.152711
-0.204667
-0.218380
-0.201835
-0.162569
-0.111771
-0.076452
-0.034784
0.012354
0.058248
0.098160
0.108900
0.110251
0.106201
0.092191
0.077101
0.047691
-0.010722
-0.090492
-0.126794
-0.180390
-0.179670
-0.187382
-0.159890
-0.141110
-0.093769
-0.027281
0.022448
0.069365
0.115840
0.126415
0.142336
0.164169
0.154798
0.134626
0.083287
0.025277
-0.014424
-0.042768
-0.085348
-0.081407
-0.102874
-0.134299
-0.145289
-0.134580
-0.098208
-0.059019
-0.005874
0.061517
0.099567
0.123259
0.146051
0.159216
0.148585
0.140437
0.105056
0.060687
0.001731
-0.036719
-0.062316
-0.089620
-0.117075
-0.144428
-0.161162
-0.139783
-0.090070
-0.060345
-0.011268
0.040395
0.093568
0.109382
0.163853
0.175578
0.174381
0.158833
0.106811
0.055531
0.012964
-0.040129
-0.107479
-0.142657
-0.153188
-0.203963
-0.207391
-0.174915
-0.146431
-0.092713
-0.061173
-0.005086
0.052216
0.075364
0.092451
0.097315
0.080154
0.065157
0.033805
-0.027939
-0.068648
-0.097899
-0.144757
-0.189261
-0.208293
-0.222456
-0.218677
-0.188873
-0.147394
-0.095604
-0.044716
0.008986
0.056548
0.089738
0.112357
0.125806
0.092386
0.069484
0.031795
-0.016978
-0.052349
-0.098930
-0.139676
-0.170185
-0.193654
-0.222072
-0.205187
-0.185343
-0.175495
-0.168551
-0.121211
-0.053195
0.003958
0.053951
0.078630
0.088702
0.087788
0.067385
0.038143
-0.011738
-0.070873
-0.111055
-0.155943
-0.199648
-0.206741
-0.202817
-0.210868
-0.191944
-0.146198
-0.101033
-0.077935
-0.030942
0.006287
0.039992
0.074832
0.101144
0.082085
0.081993
0.065000
-0.002181
-0.060119
-0.102181
-0.150277
-0.172762
-0.200104
-0.230933
-0.224354
-0.225354
-0.200139
-0.162960
-0.101787
-0.057024
-0.005938
0.049747
0.097349
0.113007
0.093589
0.094804
0.075372
0.034019
0.028663
0.019440
-0.029470
-0.058522
-0.063361
-0.056379
-0.025421
0.022621
0.098262
0.184331
0.260636
0.331598
0.412198
0.469920
0.508343
0.554874
0.564714
0.569202
0.561317
0.558653
0.555339
0.538057
0.527301
0.528002
0.534474
0.535457
0.530926
0.566598
0.608704
0.634972
0.662768
0.700282
0.721099
0.710520
0.649174
0.586378
0.517828
0.450691
0.361918
0.286597
0.180690
0.098844
0.038988
-0.004830
-0.061548
-0.083541
-0.089940
-0.068969
-0.039156
0.013168
0.052650
0.081359
0.127054
0.151756
0.178287
0.163653
0.134725
0.115603
0.076452
0.025129
-0.022384
-0.065771
-0.093001
-0.124104
-0.161050
-0.188279
-0.185899
-0.174950
-0.135612
-0.086769
-0.039573
0.007130
0.059106
0.075347
0.104562
0.118282
0.107813
0.065582
0.050563
0.006929
-0.034593
-0.086088
-0.138134
-0.166329
-0.201994
-0.202277
-0.180689
-0.149569
-0.107603
-0.079835
-0.019832
0.028551
0.054044
0.069262
0.096062
0.112247
0.113623
0.096408
0.049611
0.000518
-0.037679
-0.080338
-0.127027
-0.164111
-0.193372
-0.188509
-0.181185
-0.151840
-0.126913
-0.093202
-0.046303
0.012421
0.049540
0.077897
0.084888
0.125940
0.136266
0.101094
0.048753
0.020733
-0.006210
-0.047427
-0.094261
-0.127266
-0.171977
-0.171686
-0.166255
-0.128213
-0.098840
-0.063540
-0.003108
0.054683
0.081179
0.105961
0.120544
0.133077
0.137491
0.117792
0.073228
0.037360
-0.005273
-0.054949
-0.095939
-0.126942
-0.163412
-0.168710
-0.134122
-0.111705
-0.085303
-0.054144
-0.011461
0.052051
0.080982
0.101597
0.122203
0.141158
0.162133
0.156910
0.130033
0.084016
0.041373
-0.000562
-0.056700
-0.102643
-0.118978
-0.117052
-0.100751
-0.077127
-0.038276
-0.010959
0.029854
0.089994
0.126037
0.157492
0.208055
0.218259
0.214435
0.192117
0.146911
0.097455
0.042542
0.006109
-0.049690
-0.094238
-0.112931
-0.129241
-0.088321
-0.070829
-0.019891
0.013986
0.047803
0.094721
0.161022
0.192724
0.213384
0.214479
0.230336
0.218429
0.192133
0.143092
0.078353
0.017677
-0.046188
-0.074694
-0.082699
-0.090179
-0.063848
-0.057438
-0.035518
0.017162
0.068743
0.124194
0.151197
0.164083
0.187327
0.206115
0.191329
0.168268
0.133192
0.092257
0.061206
0.012213
-0.027700
-0.063268
-0.082010
-0.094055
-0.110173
-0.097713
-0.076708
-0.033988
0.006186
0.086823
0.146367
0.192586
0.196263
0.198226
0.203439
0.188962
0.146140
0.096030
0.028372
-0.029286
-0.085503
-0.106749
-0.126773
-0.164103
-0.137354
-0.117585
-0.113956
-0.042194
0.008462
0.043057
0.084590
0.120042
0.162434
0.162953
0.143279
0.123623
0.087809
0.052626
-0.008181
-0.058573
-0.109999
-0.146168
-0.171713
-0.186388
-0.174850
-0.169806
-0.136513
-0.083388
-0.039593
0.014488
0.065104
0.099231
0.120921
0.116014
0.109212
0.078793
0.040716
-0.005633
-0.054890
-0.113406
-0.150224
-0.179813
-0.198001
-0.184820
-0.174907
-0.164188
-0.122960
-0.068162
-0.032124
0.013883
0.055080
0.075649
0.090018
0.095574
0.098133
0.091611
0.061104
-0.000691
-0.070384
-0.089417
-0.119374
-0.166421
-0.194504
-0.217957
-0.200110
-0.165788
-0.141521
-0.108814
-0.054137
0.001658
0.033573
0.074200
0.104414
0.111557
0.105852
0.081052
0.049437
0.007722
-0.033995
-0.083337
-0.148179
-0.173997
-0.193146
-0.183164
-0.181242
-0.192320
-0.137110
-0.101366
-0.049066
-0.003642
0.052305
0.085012
0.119677
0.138711
0.110845
0.089661
0.057105
0.009306
-0.035801
-0.089664
-0.146747
-0.175247
-0.187129
-0.197727
-0.190528
-0.165993
-0.115377
-0.064810
-0.007005
0.031996
0.076906
0.090205
0.088799
0.115462
0.115187
0.093937
0.071606
0.001084
-0.030489
-0.076553
-0.127522
-0.164136
-0.178168
-0.194880
-0.163317
-0.148693
-0.128367
-0.085799
-0.027787
0.022917
0.059011
0.083994
0.096583
0.108135
0.096543
0.085407
0.055511
-0.003340
-0.050020
-0.092885
-0.131142
-0.156237
-0.190805
-0.197534
-0.171320
-0.143734
-0.128244
-0.084271
-0.014649
0.031014
0.063057
0.084573
0.109649
0.116978
0.114601
0.096214
0.064779
0.013030
-0.053596
-0.112859
-0.163681
-0.168771
-0.177115
-0.189972
-0.185663
-0.164418
-0.122142
-0.091463
-0.046559
0.002937
0.038014
0.069520
0.097210
0.115355
0.116162
0.104939
0.047809
0.004133
-0.029193
-0.074341
-0.132966
-0.165560
-0.170836
-0.178549
-0.173306
-0.167879
-0.144882
-0.115950
-0.059670
0.011070
0.078399
0.096955
0.094756
0.087130
0.080088
0.078167
0.040860
0.003782
-0.039839
-0.096108
-0.133449
-0.164079
-0.184114
-0.208786
-0.193377
-0.173813
-0.145876
-0.104649
-0.060605
-0.012253
0.045379
0.086487
0.100074
0.099485
0.104720
0.083591
0.048605
-0.003687
-0.053352
-0.091171
-0.140539
-0.189581
-0.218997
-0.207148
-0.183169
-0.178947
-0.162986
-0.121204
-0.054304
0.016038
0.044150
0.085627
0.131574
0.125910
0.099462
0.068753
0.033112
-0.018002
-0.056234
-0.094483
-0.133114
-0.170168
-0.197967
-0.206604
-0.183356
-0.159371
-0.129161
-0.082074
-0.033798
0.009466
0.063747
0.116311
0.138219
0.148188
0.135244
0.104726
0.057774
0.015241
-0.031015
-0.067673
-0.101801
-0.145865
-0.168531
-0.183356
-0.179903
-0.163124
-0.102259
-0.061948
-0.001950
0.047768
0.074950
0.100892
0.133693
0.174616
0.153975
0.136324
0.078769
0.031672
-0.008065
-0.050516
-0.074452
-0.107817
-0.147915
-0.156331
-0.151841
-0.146614
-0.116520
-0.064276
0.000770
0.070828
0.113279
0.139176
0.146608
0.144881
0.139875
0.112781
0.068917
0.034839
-0.010006
-0.050962
-0.116819
-0.160269
-0.192547
-0.200093
-0.184378
-0.173049
-0.144581
-0.101416
-0.056675
-0.002927
0.039789
0.065875
0.084789
0.083012
0.081803
0.053655
0.032555
-0.019667
-0.082282
-0.123289
-0.166291
-0.198308
-0.219607
-0.239302
-0.234287
-0.197815
-0.159296
-0.108578
-0.060946
-0.003703
0.045267
0.068731
0.081024
0.085789
0.067864
0.043769
0.007039
-0.031308
-0.080067
-0.125526
-0.164911
-0.203865
-0.245441
-0.252409
-0.246094
-0.212116
-0.174710
-0.135039
-0.080643
-0.027489
0.015677
0.040107
0.072412
0.078813
0.071194
0.050623
0.005874
-0.032094
-0.074946
-0.142186
-0.173539
-0.196795
-0.222515
-0.217258
-0.214536
-0.197272
-0.163425
-0.124840
-0.062700
-0.021720
0.023777
0.058450
0.093895
0.088694
0.080811
0.050708
0.019169
-0.024891
-0.069210
-0.130931
-0.180577
-0.222239
-0.252879
-0.250280
-0.228451
-0.207459
-0.168638
-0.135836
-0.090609
-0.045441
0.003654
0.034216
0.068508
0.077625
0.088619
0.072240
0.044369
0.009236
-0.017477
-0.057147
-0.065948
-0.082038
-0.091621
-0.090628
-0.072843
-0.029153
0.023673
0.102737
0.177753
0.257363
0.331666
0.393652
0.452278
0.490685
0.504253
0.502285
0.498431
0.481130
0.460167
0.448112
0.444056
0.444161
0.447193
0.487840
0.531240
0.574679
0.621673
0.664053
0.699711
0.725349
0.763616
0.794817
0.798469
0.734463
0.656696
0.565230
0.483650
0.386303
0.283695
0.189961
0.117254
0.046803
-0.020318
-0.055045
-0.068798
-0.070024
-0.047240
-0.018133
0.025135
0.070271
0.110171
0.131043
0.148101
0.156299
0.133039
0.120918
0.101683
0.071840
0.011150
-0.038321
-0.078505
-0.124093
-0.149686
-0.164459
-0.160398
-0.150050
-0.105160
-0.067589
-0.019617
0.027386
0.061286
0.081298
0.106157
0.110782
0.099437
0.080128
0.050768
0.000183
-0.047838
-0.103666
-0.145909
-0.181394
-0.211133
-0.226985
-0.210998
-0.186350
-0.145433
-0.094834
-0.052123
0.001520
0.053076
0.091203
0.112634
0.134522
0.136436
0.106393
0.049742
0.004851
-0.032171
-0.083441
-0.135498
-0.172338
-0.189946
-0.197919
-0.187423
-0.163127
-0.123247
-0.078874
-0.029245
0.018654
0.058725
0.099969
0.121080
0.136785
0.126782
0.105566
0.069561
0.024190
-0.029832
-0.075917
-0.121846
-0.150831
-0.174708
-0.174078
-0.155120
-0.120234
-0.094939
-0.049036
-0.006171
0.036637
0.072344
0.105204
0.146385
0.171657
0.169542
0.141215
0.091446
0.044846
-0.001771
-0.043407
-0.084028
-0.122511
-0.137522
-0.138390
-0.123976
-0.104199
-0.069772
-0.025930
0.022534
0.067743
0.101644
0.126590
0.142215
0.171421
0.177162
0.162051
0.138182
0.097287
0.047679
0.004481
-0.040950
-0.068590
-0.093147
-0.107970
-0.094577
-0.072270
-0.035820
-0.009160
0.048220
0.094891
0.146234
0.180172
0.206895
0.208429
0.203840
0.184185
0.151481
0.117980
0.066906
0.024897
-0.023502
-0.061457
-0.078613
-0.086249
-0.075490
-0.049925
-0.012187
0.047255
0.082435
0.128203
0.191643
0.226744
0.243671
0.251986
0.232773
0.214666
0.198655
0.153409
0.083864
0.035191
-0.002111
-0.021922
-0.044250
-0.062109
-0.052414
-0.022211
0.013647
0.065685
0.104745
0.147394
0.193287
0.218286
0.224957
0.244631
0.236741
0.207909
0.176761
0.143498
0.094669
0.037672
-0.005410
-0.052616
-0.078545
-0.080048
-0.068788
-0.055216
-0.016969
0.031164
0.085595
0.122579
0.160067
0.198455
0.213050
0.219685
0.211736
0.185355
0.160408
0.119563
0.060985
0.010314
-0.043972
-0.083019
-0.096012
-0.115556
-0.113215
-0.091042
-0.061503
-0.018482
0.035743
0.084754
0.127047
0.157012
0.185751
0.189749
0.189370
0.156484
0.116817
0.070780
0.016267
-0.028962
-0.068031
-0.111346
-0.135611
-0.143558
-0.143454
-0.125929
-0.099706
-0.056850
-0.006960
0.048620
0.093398
0.126715
0.147216
0.157575
0.145148
0.119514
0.080959
0.040732
-0.018798
-0.066767
-0.109104
-0.134177
-0.157559
-0.157238
-0.154301
-0.131625
-0.101844
-0.052397
-0.009069
0.044398
0.093496
0.121323
0.144867
0.156236
0.143077
0.112051
0.084408
0.040320
-0.006657
-0.057439
-0.097526
-0.147077
-0.169909
-0.188972
-0.177850
-0.159323
-0.115952
-0.073306
-0.008783
0.047459
0.088604
0.124289
0.145685
0.151824
0.149768
0.129017
0.099974
0.056228
0.002048
-0.048789
-0.094663
-0.132531
-0.154862
-0.162438
-0.154984
-0.139882
-0.109751
-0.059426
-0.011317
0.050221
0.085874
0.127070
0.141802
0.149605
0.140973
0.117503
0.084306
0.041072
-0.008830
-0.049799
-0.090540
-0.131246
-0.147998
-0.149221
-0.148575
-0.116881
-0.083394
-0.038678
0.013076
0.061982
0.105626
0.152708
0.167371
0.165865
0.150012
0.134023
0.097555
0.043454
-0.003179
-0.042585
-0.091101
-0.130720
-0.148122
-0.149438
-0.144543
-0.118358
-0.094900
-0.045411
0.007570
0.049894
0.087504
0.118985
0.153763
0.170787
0.164695
0.142787
0.110740
0.070354
0.019253
-0.042719
-0.093830
-0.116963
-0.141048
-0.155985
-0.137516
-0.116739
-0.081365
-0.036590
0.012682
0.064456
0.107302
0.139721
0.165767
0.168110
0.162791
0.136984
0.111309
0.059974
0.000028
-0.061231
-0.102613
-0.136576
-0.158770
-0.162932
-0.152332
-0.119326
-0.090246
-0.045380
0.004154
0.047311
0.082453
0.124911
0.155806
0.159829
0.156840
0.139211
0.103039
0.068216
0.019013
-0.039997
-0.086348
-0.117216
-0.144421
-0.148001
-0.148716
-0.124746
-0.089327
-0.055962
-0.004649
0.039168
0.089812
0.133180
0.149594
0.163282
0.147242
0.129388
0.097409
0.043712
-0.015431
-0.067831
-0.107786
-0.140563
-0.161477
-0.163312
-0.155588
-0.132476
-0.090706
-0.041278
0.008425
0.058505
0.092260
0.121472
0.149098
0.150786
0.143285
0.123923
0.082659
0.042233
-0.000678
-0.045850
-0.102276
-0.129451
-0.159264
-0.186187
-0.175903
-0.147485
-0.104362
-0.050960
-0.001637
0.043407
0.077773
0.118101
0.138338
0.146924
0.145959
0.122394
0.089666
0.040113
-0.013518
-0.063054
-0.105524
-0.147425
-0.163547
-0.176487
-0.165754
-0.151927
-0.114705
-0.063559
-0.010394
0.038948
0.080944
0.130815
0.147362
0.147557
0.132571
0.107033
0.071715
0.012039
-0.031367
-0.076161
-0.109428
-0.127743
-0.139108
-0.145735
-0.141522
-0.118317
-0.078017
-0.032413
0.015782
0.069815
0.122812
0.158413
0.181574
0.193154
0.190861
0.174031
0.137261
0.096917
0.034730
-0.007829
-0.059980
-0.108516
-0.123751
-0.131781
-0.134084
-0.119965
-0.074477
-0.030681
0.019576
0.072197
0.105999
0.146136
0.169200
0.178854
0.178367
0.156581
0.130938
0.084951
0.043471
-0.011809
-0.055711
-0.069681
-0.095005
-0.110210
-0.099069
-0.081572
-0.039337
-0.011230
0.034136
0.086999
0.136415
0.169019
0.190343
0.188395
0.184579
0.164956
0.128589
0.097689
0.045232
-0.002571
-0.044713
-0.082065
-0.121530
-0.136581
-0.136333
-0.123094
-0.088668
-0.049583
0.000917
0.052529
0.110227
0.140130
0.158409
0.160075
0.155475
0.132515
0.101468
0.051624
-0.002091
-0.048334
-0.093299
-0.141363
-0.170583
-0.170816
-0.166075
-0.140292
-0.105231
-0.071118
-0.015913
0.044899
0.087241
0.124276
0.147125
0.152045
0.143739
0.112663
0.085285
0.037975
-0.018229
-0.074329
-0.126628
-0.161464
-0.190052
-0.207485
-0.198237
-0.180174
-0.144726
-0.104813
-0.040294
0.010446
0.055884
0.092962
0.121424
0.138181
0.123294
0.105073
0.077739
0.029014
-0.019450
-0.060666
-0.120416
-0.156445
-0.178831
-0.179880
-0.173240
-0.147005
-0.111889
-0.074537
-0.033270
0.026140
0.078568
0.113218
0.137450
0.148941
0.115731
0.084740
0.040051
-0.004038
-0.045153
-0.090347
-0.128975
-0.169451
-0.192969
-0.188490
-0.184715
-0.156906
-0.120237
-0.083934
-0.028239
0.016447
0.059177
0.087959
0.114960
0.121436
0.113447
0.101678
0.080242
0.049111
0.001033
-0.036200
-0.078283
-0.109018
-0.113155
-0.121499
-0.103313
-0.052081
0.033388
0.102209
0.178723
0.251200
0.307415
0.357683
0.381545
0.407154
0.429188
0.431516
0.421972
0.422481
0.396804
0.368898
0.355162
0.346965
0.357895
0.387778
0.434702
0.488509
0.577507
0.651837
0.737353
0.813532
0.876297
0.908327
0.934109
0.933331
0.896628
0.859676
0.795389
0.713899
0.629173
0.514201
0.396583
0.285216
0.209574
0.159271
0.118464
0.077032
0.058046
0.087053
0.128714
0.152521
0.189195
0.234769
0.262574
0.253813
0.242710
0.214287
0.155977
0.112785
0.051847
-0.016299
-0.054693
-0.073965
-0.081410
-0.102142
-0.107864
-0.082712
-0.054260
-0.020460
0.028257
0.076409
0.114258
0.145795
0.171903
0.181070
0.168496
0.139413
0.104939
0.056557
0.016633
-0.029195
-0.068056
-0.108278
-0.128013
-0.136641
-0.123295
-0.115690
-0.085208
-0.062440
-0.010401
0.045916
0.087028
0.125060
0.142020
0.145708
0.141336
0.121047
0.086300
0.045082
0.000285
-0.051760
-0.087979
-0.126363
-0.148622
-0.157271
-0.129409
-0.108611
-0.074182
-0.026349
0.035737
0.081032
0.112235
0.140198
0.170669
0.169337
0.148969
0.116518
0.065384
0.037189
-0.012557
-0.056310
-0.084829
-0.119153
-0.154930
-0.157094
-0.135771
-0.118333
-0.051281
-0.008538
0.028484
0.072378
0.104851
0.136257
0.174604
0.205632
0.184247
0.154020
0.116856
0.071871
0.027993
-0.011754
-0.057474
-0.083657
-0.097591
-0.098982
-0.083101
-0.061230
-0.021734
0.026408
0.069449
0.107224
0.157451
0.180245
0.205423
0.219600
0.196439
0.175482
0.139366
0.111404
0.068309
0.017116
-0.023720
-0.054701
-0.083885
-0.092905
-0.068508
-0.044544
-0.015052
0.027095
0.082411
0.131442
0.185151
0.214764
0.246497
0.249498
0.241479
0.211600
0.183163
0.148360
0.106836
0.061346
0.017825
-0.015511
-0.028154
-0.037084
-0.020633
-0.002847
0.033157
0.079589
0.124288
0.176877
0.216752
0.240129
0.272671
0.278382
0.271582
0.242649
0.215155
0.164012
0.120175
0.068606
0.024259
-0.007179
-0.020310
-0.030025
-0.016562
0.001259
0.036529
0.081286
0.135531
0.194708
0.233681
0.259975
0.285718
0.294598
0.277974
0.279279
0.235435
0.189800
0.145292
0.103085
0.050371
0.020379
-0.000849
-0.002976
-0.010328
0.001609
0.042506
0.088573
0.122728
0.168680
0.207390
0.232721
0.255870
0.260998
0.239137
0.224673
0.200119
0.159682
0.110310
0.063053
0.016613
-0.020866
-0.043353
-0.051373
-0.036872
-0.007832
0.013508
0.037322
0.079863
0.131977
0.174045
0.201301
0.232117
0.241948
0.234655
0.199434
0.147608
0.100376
0.058321
0.012267
-0.029601
-0.053087
-0.079641
-0.090771
-0.076026
-0.046325
-0.020436
0.004874
0.043997
0.075819
0.125953
0.158170
0.187277
0.192294
0.172825
0.148548
0.115339
0.068267
0.018420
-0.030256
-0.071141
-0.110673
-0.120149
-0.120172
-0.108297
-0.095534
-0.054440
-0.010218
0.034442
0.077691
0.107598
0.129165
0.153744
0.182076
0.192149
0.163085
0.112602
0.052198
0.011107
-0.030487
-0.066078
-0.074442
-0.093933
-0.108593
-0.118192
-0.103892
-0.105842
-0.067186
-0.028877
0.023338
0.073295
0.098717
0.131713
0.154848
0.155182
0.121008
0.074666
0.032989
-0.021848
-0.036803
-0.070907
-0.091840
-0.119008
-0.140296
-0.132561
-0.096713
-0.072768
-0.034108
0.032223
0.066942
0.119064
0.137593
0.125006
0.159671
0.176677
0.155762
0.133826
0.095738
0.036639
-0.018032
-0.066502
-0.098987
-0.118773
-0.131035
-0.121131
-0.109749
-0.101805
-0.025582
0.045327
0.086365
0.124882
0.150577
0.178395
0.185482
0.164007
0.131132
0.088844
0.056164
0.025284
-0.016640
-0.066406
-0.095027
-0.115674
-0.126269
-0.117239
-0.086204
-0.055920
-0.010916
0.032466
0.081747
0.128966
0.165972
0.198721
0.215585
0.194538
0.156002
0.144454
0.086472
0.022955
-0.021590
-0.085926
-0.129017
-0.139920
-0.130427
-0.114377
-0.083929
-0.045895
-0.010803
0.027922
0.074117
0.127142
0.169043
0.176028
0.183763
0.178866
0.146912
0.126955
0.091922
0.037212
-0.016274
-0.060585
-0.087981
-0.085946
-0.103629
-0.111153
-0.074477
-0.030891
0.018304
0.037126
0.047597
0.095172
0.137141
0.161954
0.184373
0.164527
0.121377
0.080360
0.043835
0.007209
-0.032553
-0.069643
-0.096348
-0.117774
-0.129381
-0.125765
-0.113099
-0.066205
-0.005178
0.022400
0.069675
0.097387
0.121625
0.126591
0.136451
0.133851
0.092125
0.055569
0.027313
-0.041375
-0.045935
-0.094148
-0.085283
-0.105924
-0.131382
-0.139043
-0.116127
-0.077874
-0.024854
0.024970
0.068286
0.115576
0.151287
0.171631
0.168936
0.168960
0.134601
0.106874
0.058969
0.005615
-0.054422
-0.092027
-0.114108
-0.141572
-0.147128
-0.133509
-0.106708
-0.089868
-0.052350
0.011534
0.058936
0.107029
0.139215
0.143295
0.132248
0.127871
0.114789
0.085378
0.047791
-0.008532
-0.044541
-0.082398
-0.125623
-0.152380
-0.141509
-0.142350
-0.131897
-0.099166
-0.060511
-0.002998
0.061513
0.108879
0.118733
0.145580
0.174104
0.158299
0.118158
0.090654
0.059588
0.008899
-0.043339
-0.090874
-0.130291
-0.134665
-0.141322
-0.142000
-0.127863
-0.107595
-0.070962
-0.000274
0.067902
0.100286
0.125955
0.144069
0.153653
0.152121
0.131370
0.094473
0.060768
0.001136
-0.052913
-0.084868
-0.120285
-0.146185
-0.155217
-0.147543
-0.122521
-0.079084
-0.041923
0.014553
0.060295
0.095755
0.119160
0.153436
0.155658
0.147036
0.126891
0.092516
0.047493
-0.003424
-0.061344
-0.117851
-0.153154
-0.161763
-0.171066
-0.159310
-0.151423
-0.114730
-0.052149
0.021755
0.043097
0.075826
0.110104
0.152208
0.167620
0.154883
0.161285
0.129253
0.066352
0.051974
-0.007121
-0.054211
-0.076169
-0.096968
-0.109452
-0.106034
-0.088949
-0.065588
-0.017698
0.033134
0.079662
0.121254
0.160311
0.182854
0.197069
0.197617
0.164938
0.123179
0.068761
0.027836
-0.012249
-0.057261
-0.090396
-0.115843
-0.135091
-0.117862
-0.099591
-0.053280
0.015572
0.069510
0.111765
0.163368
0.194622
0.198884
0.187953
0.216494
0.183013
0.139175
0.097108
0.048862
-0.010199
-0.038878
-0.054494
-0.084686
-0.095606
-0.108685
-0.089401
-0.065807
-0.019479
0.037048
0.080367
0.111984
0.165659
0.181837
0.178561
0.178488
0.152229
0.120255
0.082882
0.007905
-0.049240
-0.083307
-0.110242
-0.143799
-0.155738
-0.138539
-0.110769
-0.084778
-0.037028
0.013042
0.056176
0.097531
0.117175
0.134690
0.148644
0.127533
0.094709
0.068144
0.035211
0.005415
-0.039014
-0.119223
-0.141932
-0.193575
-0.178490
-0.179123
-0.183231
-0.116381
-0.066529
-0.022756
0.046400
0.103565
0.114357
0.126902
0.120051
0.117475
0.136609
0.071985
0.038462
-0.013538
-0.060025
-0.084981
-0.122579
-0.147813
-0.160641
-0.149338
-0.135146
-0.105697
-0.074325
-0.024198
0.033712
0.063739
0.105385
0.122215
0.131735
0.134730
0.120081
0.076332
0.039203
-0.013263
-0.061331
-0.100685
-0.140276
-0.167659
-0.164363
-0.174015
-0.143538
-0.104853
-0.071491
-0.016097
0.032785
0.068772
0.118521
0.146033
0.146019
0.100240
0.063197
0.041247
0.004296
-0.069182
-0.112390
-0.119071
-0.147264
-0.159621
-0.164951
-0.159577
-0.124906
-0.078719
-0.040059
0.026120
0.095972
0.140346
0.184189
0.216911
0.236002
0.253536
0.237575
0.202178
0.176249
0.149158
0.121567
0.098054
0.075566
0.081912
0.127013
0.178496
0.234287
0.301903
0.389444
0.454089
0.526210
0.608065
0.662214
0.723541
0.763288
0.790001
0.804709
0.804801
0.811075
0.793512
0.754049
0.700062
0.671054
0.637231
0.613219
0.583360
0.567799
0.562736
0.542968
0.531664
0.556330
0.504823
0.500742
0.513574
0.453746
0.377617
0.309949
0.243939
0.178854
0.126230
0.071549
0.049559
0.006965
-0.025143
-0.049910
-0.063514
-0.065129
-0.020745
0.027238
0.057952
0.106091
0.150088
0.197277
0.212004
0.200352
0.196362
0.167912
0.125652
0.088123
0.046957
-0.020256
-0.048777
-0.089615
-0.113909
-0.151264
-0.152847
-0.109978
-0.089127
-0.015341
0.051888
0.092606
0.095655
0.136907
0.192495
0.182674
0.170822
0.143313
0.103602
0.047858
0.012728
0.004587
-0.050201
-0.107042
-0.158656
-0.170558
-0.167076
-0.126818
-0.077551
-0.044671
-0.024237
0.055130
0.103396
0.144475
0.164588
0.166535
0.164858
0.138796
0.125654
0.070303
0.014313
-0.033942
-0.061882
-0.092788
-0.108514
-0.089318
-0.105539
-0.085115
-0.038848
-0.019359
0.022698
0.091846
0.122652
0.162855
0.175815
0.176993
0.152196
0.152845
0.102189
0.081713
0.025113
-0.011469
-0.056305
-0.106157
-0.098348
-0.097034
-0.080264
-0.064961
-0.046989
-0.001806
0.053063
0.100474
0.135601
0.182691
0.185898
0.197052
0.186934
0.181593
0.142434
0.110437
0.056139
0.025284
-0.010128
-0.048863
-0.070997
-0.084989
-0.075174
-0.068130
-0.038327
0.004418
0.069475
0.130931
0.180801
0.205223
0.255615
0.279967
0.255701
0.215880
0.198203
0.146438
0.085997
0.058599
0.012867
-0.025147
-0.050173
-0.055967
-0.031053
-0.026396
0.010806
0.078069
0.140318
0.209244
0.227236
0.235211
0.271337
0.265600
0.252501
0.242593
0.199873
0.206435
0.160667
0.105826
0.057542
0.023246
-0.000320
-0.008280
-0.001172
0.012646
0.057996
0.112647
0.154865
0.216410
0.256505
0.278757
0.293856
0.295642
0.287251
0.264086
0.243040
0.222987
0.153276
0.095953
0.042909
0.014826
0.001272
0.002996
-0.007366
0.001215
0.035298
0.120405
0.147682
0.194816
0.227409
0.275389
0.299483
0.299841
0.278758
0.258239
0.218904
0.177638
0.137425
0.098910
0.057578
0.025291
0.009679
0.009649
-0.002976
0.013484
0.046435
0.074075
0.122460
0.161815
0.209657
0.238085
0.270629
0.277814
0.251173
0.242696
0.199915
0.157613
0.103238
0.038879
0.000119
-0.039414
-0.059437
-0.077615
-0.052609
-0.027958
0.013153
0.054755
0.072005
0.124894
0.172643
0.204514
0.206891
0.193319
0.189764
0.196919
0.166495
0.096209
0.061949
0.012126
-0.042162
-0.069674
-0.083495
-0.091795
-0.102869
-0.079708
-0.055090
-0.012221
0.040290
0.098845
0.135771
0.187081
0.197824
0.207557
0.181354
0.154506
0.123704
0.086191
0.042911
-0.021614
-0.074467
-0.105378
-0.141900
-0.165109
-0.145315
-0.102266
-0.051220
0.007837
0.047732
0.073354
0.112896
0.138419
0.164995
0.177623
0.163971
0.149452
0.120265
0.060726
0.004191
-0.049915
-0.095169
-0.134691
-0.179897
-0.181426
-0.106033
-0.057784
-0.004425
0.011618
0.069238
0.101943
0.099201
0.097084
0.204878
0.216780
0.208138
0.180332
0.108878
0.038138
0.018909
-0.030011
-0.067427
-0.099195
-0.110834
-0.113466
-0.093298
-0.084177
-0.059846
-0.028024
0.028421
0.085766
0.130291
0.149282
0.179964
0.198143
0.184095
0.158557
0.116912
0.078316
0.026856
-0.031489
-0.071708
-0.098878
-0.096377
-0.101972
-0.089781
-0.072138
-0.053501
-0.015310
0.037515
0.101882
0.125606
0.164689
0.193002
0.201930
0.185910
0.170078
0.125243
0.063514
0.008563
-0.006506
-0.050664
-0.074144
-0.099725
-0.114836
-0.111837
-0.103173
-0.109373
-0.039137
0.015604
0.079412
0.132485
0.180874
0.185590
0.201470
0.186341
0.186505
0.150610
0.097707
0.032749
-0.015955
-0.060359
-0.104412
-0.116111
-0.114235
-0.101488
-0.089613
-0.053108
-0.010915
0.050645
0.095811
0.124180
0.153501
0.179927
0.193270
0.187162
0.151350
0.115271
0.060632
0.027107
-0.017630
-0.066210
-0.103302
-0.119732
-0.143351
-0.107687
-0.080423
-0.047611
-0.016983
0.027387
0.082626
0.111013
0.159549
0.173846
0.228295
0.197781
0.145196
0.089237
0.042051
-0.002989
-0.041378
-0.060921
-0.107425
-0.114158
-0.113134
-0.119148
-0.116851
-0.076415
-0.034476
0.014652
0.054624
0.118616
0.161079
0.154251
0.158582
0.195021
0.145694
0.098879
0.049409
-0.008278
-0.030832
-0.072525
-0.085790
-0.098389
-0.117441
-0.134619
-0.129213
-0.090013
-0.059161
0.010105
0.079292
0.140747
0.143686
0.145506
0.137132
0.121491
0.134313
0.135736
0.080023
0.007710
-0.043253
-0.084270
-0.119462
-0.132635
-0.120099
-0.121862
-0.110360
-0.088536
-0.023737
0.022549
0.065835
0.092556
0.131748
0.178438
0.173923
0.153956
0.130850
0.097023
0.068279
0.026659
-0.037389
-0.103515
-0.112544
-0.144868
-0.148641
-0.143333
-0.122787
-0.078728
-0.029447
0.017277
0.068674
0.105576
0.137509
0.149067
0.161786
0.149174
0.122030
0.094681
0.053721
-0.002406
-0.059418
-0.108729
-0.138750
-0.141802
-0.154261
-0.134584
-0.114184
-0.078110
-0.037855
0.031801
0.051091
0.127479
0.151167
0.156264
0.155262
0.141414
0.115449
0.088792
0.052352
-0.006907
-0.077941
-0.094872
-0.123036
-0.123743
-0.120552
-0.120951
-0.107618
-0.079657
-0.037400
0.010917
0.057251
0.108051
0.151714
0.174758
0.183627
0.172419
0.136376
0.092478
0.049643
0.037871
-0.017010
-0.079548
-0.093972
-0.115469
-0.125989
-0.112356
-0.090709
-0.060073
-0.014838
0.036284
0.094081
0.133667
0.169080
0.180701
0.184623
0.186133
0.160055
0.120595
0.085654
0.021388
-0.026922
-0.064988
-0.098952
-0.117872
-0.131751
-0.127848
-0.055135
-0.020764
0.015837
0.058232
0.107949
0.155248
0.213213
0.239147
0.223924
0.212797
0.200104
0.163189
0.106714
0.053267
0.000708
-0.050727
-0.097098
-0.108799
-0.111038
-0.107428
-0.082810
-0.048564
-0.002794
0.054841
0.098575
0.125628
0.156249
0.179979
0.183003
0.174299
0.125222
0.084468
0.043850
0.005037
-0.048524
-0.093928
-0.118671
-0.116435
-0.122799
-0.115269
-0.105023
-0.065173
-0.029388
0.028809
0.079323
0.110781
0.136336
0.152430
0.165993
0.168557
0.126006
0.081682
0.034514
-0.017615
-0.064230
-0.100168
-0.133100
-0.158631
-0.173667
-0.159949
-0.144160
-0.107112
-0.061785
-0.003059
0.045407
0.085161
0.109683
0.124241
0.122793
0.109911
0.091877
0.065466
0.032109
-0.013614
-0.063602
-0.109947
-0.150361
-0.155717
-0.159325
-0.151209
-0.139969
-0.101147
-0.058921
-0.011179
0.025201
0.075025
0.108068
0.124059
0.113140
0.128210
0.096535
0.070109
0.034540
-0.021720
-0.083624
-0.155774
-0.159992
-0.173509
-0.160074
-0.159774
-0.138724
-0.113721
-0.081448
-0.043409
0.021392
0.072171
0.115583
0.136321
0.134525
0.126148
0.100162
0.068041
0.020082
-0.023518
-0.073422
-0.109993
-0.147084
-0.169366
-0.181070
-0.174562
-0.142349
-0.092488
-0.053124
0.012375
0.062394
0.116891
0.162493
0.199655
0.203711
0.207150
0.193910
0.174721
0.157311
0.112994
0.078468
0.046783
0.049259
0.056395
0.075353
0.104683
0.152699
0.220023
0.297140
0.389877
0.472312
0.548556
0.602982
0.647291
0.672739
0.704546
0.729616
0.755281
0.744954
0.732632
0.708001
0.687361
0.661809
0.626671
0.631613
0.634458
0.638529
0.651548
0.661251
0.677713
0.671628
0.639529
0.607202
0.557760
0.503422
0.446826
0.364100
0.286364
0.215791
0.150868
0.091877
0.032748
-0.016728
-0.040713
-0.037721
-0.034551
-0.023145
-0.010415
0.015251
0.047439
0.100871
0.127351
0.184684
0.201773
0.208562
0.191016
0.161115
0.127668
0.085811
0.029910
-0.023054
-0.067031
-0.103231
-0.137861
-0.127627
-0.111305
-0.094437
-0.045998
-0.004647
0.035923
0.077900
0.114256
0.136145
0.170545
0.178292
0.162595
0.122990
0.077793
0.034290
-0.017403
-0.069587
-0.106980
-0.143173
-0.150304
-0.144429
-0.137618
-0.112548
-0.074291
-0.045031
-0.005960
0.034250
0.096660
0.140436
0.158607
0.173989
0.160290
0.132020
0.088011
0.046316
0.002256
-0.042630
-0.094946
-0.121510
-0.137276
-0.134396
-0.130841
-0.102376
-0.074308
-0.037886
0.010615
0.079843
0.137295
0.156887
0.157783
0.157390
0.152528
0.129317
0.101221
0.066554
0.007456
-0.036532
-0.079790
-0.104101
-0.118219
-0.125882
-0.117212
-0.091091
-0.058720
-0.008004
0.053415
0.102351
0.142885
0.168562
0.184047
0.198486
0.191816
0.175278
0.136550
0.096755
0.051267
0.006030
-0.035724
-0.079447
-0.109117
-0.119449
-0.107757
-0.084393
-0.022079
0.036015
0.089979
0.136510
0.168040
0.197690
0.235938
0.243291
0.226960
0.192466
0.164228
0.112416
0.060459
0.025709
-0.005440
-0.033770
-0.050620
-0.055592
-0.046750
-0.033998
0.009117
0.064459
0.113685
0.157851
0.194873
0.220041
0.244163
0.253143
0.259547
0.242145
0.199338
0.164468
0.127813
0.072177
0.025198
0.012426
0.000616
-0.011284
-0.006292
0.005466
0.043086
0.091883
0.157433
0.203245
0.236021
0.262850
0.274814
0.281250
0.262142
0.237871
0.198572
0.166983
0.125258
0.071503
0.023661
-0.000214
-0.006213
-0.019677
-0.014743
0.012923
0.061859
0.105527
0.144460
0.188468
0.228491
0.259788
0.279228
0.285771
0.281344
0.256943
0.230276
0.178236
0.120446
0.062978
0.021038
-0.003970
-0.031105
-0.032671
-0.025416
-0.001005
0.032833
0.070227
0.124986
0.162141
0.201767
0.231178
0.256352
0.254819
0.241254
0.222007
0.177343
0.129400
0.075361
0.027203
-0.016482
-0.048888
-0.068562
-0.073775
-0.077333
-0.061651
-0.039870
0.009702
0.065070
0.122795
0.165655
0.189473
0.204024
0.218774
0.200907
0.169781
0.130406
0.092762
0.041829
-0.008367
-0.047106
-0.086939
-0.115552
-0.119341
-0.111580
-0.084639
-0.051705
-0.014953
0.029186
0.069141
0.110533
0.141257
0.163620
0.158090
0.153941
0.125802
0.091157
0.044188
-0.009604
-0.052227
-0.098813
-0.130759
-0.141433
-0.137111
-0.123965
-0.099874
-0.070541
-0.027032
0.013587
0.056435
0.098160
0.124242
0.152954
0.162435
0.154820
0.129837
0.103420
0.066644
0.011534
-0.038129
-0.080144
-0.114145
-0.139604
-0.152532
-0.137238
-0.119750
-0.075353
-0.040257
0.012501
0.060202
0.096737
0.118215
0.134471
0.153789
0.146978
0.115106
0.081550
0.029294
-0.013653
-0.049774
-0.077267
-0.120336
-0.140243
-0.142742
-0.137666
-0.095800
-0.061730
-0.032378
0.003968
0.049449
0.103755
0.139428
0.167752
0.166170
0.160438
0.139738
0.100086
0.056986
-0.004913
-0.040841
-0.077856
-0.108256
-0.131051
-0.137425
-0.137547
-0.113583
-0.078160
-0.030422
0.009583
0.064858
0.113072
0.132308
0.153591
0.165187
0.153165
0.133864
0.094729
0.045408
-0.007789
-0.052678
-0.082938
-0.101045
-0.120695
-0.121808
-0.121458
-0.099824
-0.070150
-0.027339
0.023460
0.072306
0.107846
0.134182
0.163160
0.168299
0.156786
0.136577
0.094654
0.041881
0.006575
-0.033849
-0.071737
-0.111203
-0.130573
-0.139091
-0.127044
-0.108646
-0.074845
-0.030616
0.013115
0.059708
0.100514
0.128251
0.146296
0.148171
0.148607
0.113696
0.092162
0.056556
0.002216
-0.055644
-0.095860
-0.116484
-0.142509
-0.155719
-0.146118
-0.110825
-0.068391
-0.026029
0.003203
0.060358
0.100203
0.118562
0.132926
0.157637
0.152249
0.105772
0.074116
0.053099
0.008056
-0.039283
-0.079711
-0.117162
-0.141485
-0.158714
-0.152897
-0.128499
-0.094835
-0.059965
-0.011722
0.044247
0.083868
0.103894
0.122950
0.140831
0.131446
0.083826
0.068599
0.027379
-0.017674
-0.047114
-0.080038
-0.121124
-0.160902
-0.170632
-0.155940
-0.124901
-0.086935
-0.043675
-0.002758
0.036249
0.086222
0.119046
0.144319
0.148903
0.140056
0.125202
0.078367
0.028427
-0.019638
-0.074884
-0.113622
-0.142089
-0.162972
-0.174571
-0.160662
-0.129112
-0.107945
-0.059489
-0.006196
0.042153
0.076223
0.106143
0.134265
0.135131
0.118306
0.101782
0.062519
0.009400
-0.025270
-0.067126
-0.104526
-0.139081
-0.163416
-0.156681
-0.162276
-0.139326
-0.098117
-0.063194
-0.026066
0.013754
0.062373
0.112151
0.134435
0.146980
0.129796
0.105647
0.085325
0.039448
-0.020423
-0.079858
-0.117441
-0.146316
-0.175696
-0.176445
-0.156037
-0.132116
-0.097105
-0.054074
-0.014716
0.032808
0.074346
0.104363
0.125015
0.131187
0.112799
0.110931
0.069864
0.020637
-0.025350
-0.069267
-0.097548
-0.133659
-0.155852
-0.168488
-0.161420
-0.128332
-0.089100
-0.048829
-0.009175
0.044410
0.089044
0.121881
0.146449
0.159530
0.146006
0.119471
0.086604
0.039878
-0.002903
-0.050850
-0.083301
-0.105655
-0.137985
-0.140523
-0.126794
-0.110690
-0.075244
-0.032735
0.020984
0.071816
0.110649
0.142404
0.163182
0.160731
0.151432
0.135866
0.096985
0.040928
0.009210
-0.037156
-0.077928
-0.102094
-0.128892
-0.132499
-0.116883
-0.099547
-0.065628
-0.026308
0.025943
0.096712
0.136105
0.162962
0.191011
0.196736
0.171809
0.149495
0.108894
0.069017
0.022548
-0.027100
-0.076637
-0.086762
-0.102811
-0.127675
-0.121451
-0.105596
-0.072698
-0.028133
0.010667
0.048215
0.087979
0.126044
0.153190
0.160071
0.140696
0.119239
0.086859
0.043076
-0.009418
-0.050915
-0.099761
-0.122541
-0.143181
-0.156504
-0.149655
-0.128677
-0.092598
-0.050650
-0.011894
0.031030
0.075046
0.092784
0.107017
0.110493
0.098573
0.080139
0.043088
0.009451
-0.029728
-0.071471
-0.121577
-0.150577
-0.185872
-0.198494
-0.200877
-0.170490
-0.120649
-0.071462
-0.022566
0.019067
0.043877
0.087973
0.110792
0.131888
0.122263
0.087766
0.045363
-0.008466
-0.051659
-0.095600
-0.134757
-0.163317
-0.183205
-0.182319
-0.179003
-0.161358
-0.129822
-0.087966
-0.030767
0.013700
0.056258
0.092082
0.098749
0.100018
0.088294
0.067504
0.034294
-0.010383
-0.048189
-0.094684
-0.134466
-0.170049
-0.194510
-0.197029
-0.190919
-0.170624
-0.120892
-0.066480
-0.029341
0.017885
0.050556
0.076775
0.092145
0.103843
0.093902
0.076521
0.044793
-0.000983
-0.043119
-0.111098
-0.147376
-0.159506
-0.175090
-0.197448
-0.191251
-0.164706
-0.106997
-0.052662
-0.001535
0.058998
0.104153
0.136239
0.168809
0.185277
0.202619
0.205248
0.196011
0.152900
0.127452
0.112762
0.089525
0.088907
0.100747
0.110548
0.158425
0.225361
0.297476
0.377458
0.449593
0.533331
0.599937
0.653039
0.715132
0.759240
0.789767
0.807509
0.808924
0.794948
0.767644
0.726548
0.670956
0.636582
0.584801
0.582041
0.569563
0.570152
0.563558
0.543521
0.517739
0.493894
0.470582
0.451817
0.422312
0.391818
0.316521
0.260947
0.209490
0.162872
0.110474
0.064256
0.011885
-0.039640
-0.075966
-0.095091
-0.084246
-0.068504
-0.042740
-0.000595
0.033002
0.081159
0.122069
0.153732
0.171027
0.170174
0.165712
0.155552
0.107620
0.049732
-0.000331
-0.040872
-0.073768
-0.107651
-0.134889
-0.144979
-0.142275
-0.120889
-0.089783
-0.042870
-0.007623
0.040025
0.083444
0.121264
0.135793
0.150360
0.139057
0.113098
0.060020
-0.000152
-0.036420
-0.064953
-0.104178
-0.139285
-0.153900
-0.160293
-0.150676
-0.117931
-0.085354
-0.046224
0.000750
0.047947
0.078755
0.112573
0.131883
0.143740
0.136686
0.119402
0.091687
0.048503
-0.002140
-0.037209
-0.089013
-0.132139
-0.158913
-0.159927
-0.151533
-0.119269
-0.074759
-0.047846
-0.002012
0.047745
0.101124
0.131048
0.140248
0.150096
0.137036
0.122271
0.088440
0.040797
-0.004376
-0.050979
-0.093760
-0.113578
-0.129168
-0.135512
-0.123741
-0.106752
-0.067903
-0.023501
0.030128
0.077782
0.136344
0.166126
0.182431
0.187193
0.180374
0.152711
0.130329
0.082872
0.028486
-0.017995
-0.055968
-0.080522
-0.103309
-0.124705
-0.108389
-0.083440
-0.056368
-0.003896
0.048078
0.112445
0.140996
0.184869
0.206347
0.214315
0.206757
0.181546
0.148246
0.097553
0.066561
0.018853
-0.017068
-0.049011
-0.067216
-0.063311
-0.046726
-0.034319
0.006027
0.050706
0.100690
0.142694
0.186451
0.217133
0.243511
0.261268
0.256329
0.229316
0.189364
0.156892
0.105771
0.052083
0.019805
-0.016452
-0.030259
-0.042060
-0.026161
-0.002862
0.040307
0.080933
0.127953
0.173516
0.203528
0.250250
0.262089
0.270044
0.258231
0.244939
0.212566
0.172766
0.111236
0.066606
0.034682
-0.004774
-0.021893
-0.026583
-0.010589
0.009018
0.022216
0.062807
0.114638
0.175874
0.214982
0.248238
0.289414
0.291316
0.267982
0.241816
0.198776
0.151870
0.103367
0.052146
0.014394
-0.014843
-0.041409
-0.067094
-0.054701
-0.033830
0.000475
0.048049
0.084379
0.125192
0.178467
0.218272
0.235949
0.235248
0.222198
0.201398
0.165727
0.123217
0.070753
0.014248
-0.025459
-0.046762
-0.076525
-0.086568
-0.088646
-0.068255
-0.027884
0.024405
0.060088
0.097230
0.131911
0.162493
0.176735
0.194642
0.187710
0.157403
0.107258
0.066992
0.013215
-0.013863
-0.070328
-0.101596
-0.132203
-0.142934
-0.136628
-0.116667
-0.084052
-0.025943
0.020541
0.071493
0.103351
0.136614
0.156748
0.157435
0.146994
0.114656
0.077421
0.034739
-0.018610
-0.059938
-0.106602
-0.139986
-0.143987
-0.152256
-0.142517
-0.118913
-0.068258
-0.040668
-0.008871
0.044957
0.089565
0.102323
0.115939
0.141776
0.134909
0.115043
0.077688
0.031729
-0.019865
-0.063660
-0.108013
-0.138609
-0.146947
-0.152833
-0.145532
-0.114267
-0.077125
-0.037968
0.007845
0.055692
0.096076
0.125576
0.136455
0.137424
0.134113
0.105270
0.071737
0.037200
-0.013187
-0.047079
-0.079880
-0.110666
-0.132247
-0.146366
-0.145563
-0.136287
-0.089131
-0.039334
0.005092
0.049880
0.095725
0.133013
0.145773
0.152895
0.146834
0.112776
0.070504
0.038877
-0.010518
-0.043689
-0.076206
-0.105063
-0.127075
-0.143706
-0.132270
-0.116101
-0.069989
-0.027458
0.009748
0.061733
0.091651
0.113930
0.140990
0.146470
0.126612
0.112331
0.081538
0.044648
0.002453
-0.053669
-0.095454
-0.123135
-0.135348
-0.126308
-0.126152
-0.110513
-0.068440
-0.034746
0.035900
0.080679
0.112626
0.148288
0.167758
0.169848
0.147834
0.124690
0.090306
0.049971
-0.002677
-0.053799
-0.094458
-0.129684
-0.136923
-0.153940
-0.150684
-0.128014
-0.079970
-0.037335
0.005787
0.055802
0.095792
0.134536
0.152375
0.153905
0.147792
0.122216
0.081104
0.038787
-0.001503
-0.056293
-0.096611
-0.125839
-0.148672
-0.152891
-0.151283
-0.118228
-0.094881
-0.067723
-0.013578
0.038776
0.085208
0.111938
0.122819
0.125459
0.125051
0.103549
0.060160
0.017991
-0.023150
-0.066269
-0.083206
-0.124323
-0.142715
-0.150904
-0.147351
-0.130107
-0.093701
-0.055481
-0.010785
0.032962
0.076649
0.114536
0.143390
0.140851
0.117417
0.088745
0.056072
0.008472
-0.034774
-0.062264
-0.097420
-0.125060
-0.156439
-0.155182
-0.143730
-0.133517
-0.094904
-0.062583
-0.002503
0.035855
0.076586
0.105241
0.121325
0.126804
0.125728
0.100372
0.061969
0.024104
-0.024582
-0.076678
-0.118240
-0.138504
-0.160225
-0.182227
-0.172797
-0.141115
-0.110860
-0.048917
-0.003173
0.032272
0.079683
0.112874
0.128208
0.127015
0.120003
0.102069
0.062759
0.021170
-0.030356
-0.066354
-0.093320
-0.126699
-0.155578
-0.165963
-0.161082
-0.146077
-0.114746
-0.064668
-0.016885
0.026203
0.070845
0.110229
0.114839
0.114136
0.118501
0.100464
0.057573
0.012081
-0.032537
-0.075706
-0.114633
-0.151772
-0.174385
-0.173981
-0.161787
-0.135226
-0.101956
-0.045270
-0.003494
0.038849
0.064305
0.086021
0.109649
0.124127
0.116404
0.094099
0.056262
0.016648
-0.021542
-0.069863
-0.116338
-0.155096
-0.173895
-0.168610
-0.162217
-0.145727
-0.091219
-0.045986
-0.009109
0.039389
0.071873
0.100240
0.119759
0.124312
0.114955
0.096054
0.073154
0.033638
-0.010177
-0.057014
-0.100220
-0.119720
-0.135005
-0.141537
-0.139709
-0.123474
-0.072769
-0.017486
0.028559
0.072125
0.098855
0.135617
0.165303
0.168642
0.167421
0.152241
0.110849
0.053522
0.005742
-0.044001
-0.077327
-0.107077
-0.126469
-0.139223
-0.134343
-0.109119
-0.074740
-0.029436
0.018508
0.069392
0.111731
0.139016
0.161019
0.175819
0.167760
0.149713
0.110846
0.077893
0.022225
-0.018925
-0.074881
-0.101878
-0.117849
-0.121173
-0.108608
-0.092216
-0.050790
-0.016925
0.023555
0.075016
0.099332
0.128264
0.150059
0.146179
0.127414
0.100984
0.092581
0.063284
0.005507
-0.045189
-0.093754
-0.137550
-0.155129
-0.162335
-0.150035
-0.128775
-0.091879
-0.048911
-0.012479
0.041187
0.075251
0.108803
0.137292
0.133145
0.109951
0.083780
0.049615
0.007818
-0.023852
-0.061657
-0.106381
-0.139343
-0.170516
-0.186622
-0.186392
-0.162277
-0.128304
-0.084114
-0.050093
0.009737
0.055368
0.088432
0.105954
0.116125
0.106740
0.078410
0.041661
-0.011639
-0.052547
-0.111963
-0.152241
-0.184765
-0.206060
-0.194656
-0.171800
-0.145253
-0.116870
-0.089860
-0.044395
-0.004547
0.035364
0.079531
0.096050
0.110465
0.101165
0.070644
0.040383
0.002087
-0.045379
-0.087194
-0.130991
-0.162051
-0.191424
-0.188127
-0.184048
-0.168720
-0.132845
-0.082081
-0.036614
0.019374
0.059732
0.076041
0.096541
0.086366
0.079262
0.082207
0.049358
0.000154
-0.048777
-0.100101
-0.138583
-0.165485
-0.196571
-0.202657
-0.195743
-0.178323
-0.129124
-0.094930
-0.042155
0.015854
0.062286
0.105597
0.134202
0.149791
0.137299
0.120695
0.114381
0.077523
0.049993
0.035125
0.003815
-0.020733
-0.023664
0.002158
0.023375
0.071867
0.135705
0.210592
0.290532
0.372100
0.464088
0.510765
0.569645
0.605823
0.623228
0.635653
0.623428
0.635359
0.639393
0.624510
0.623583
0.614606
0.614697
0.609720
0.608951
0.632179
0.673326
0.696579
0.726261
0.756329
0.782510
0.751256
0.680415
0.625911
0.554815
0.486965
0.393963
0.286364
0.176378
0.095352
0.047602
0.006082
-0.026197
-0.043393
-0.033714
-0.023946
0.013133
0.036921
0.063494
0.112083
0.150432
0.177237
0.184756
0.182580
0.159591
0.128673
0.107891
0.063875
0.008397
-0.044072
-0.074040
-0.108920
-0.134244
-0.119864
-0.115666
-0.111243
-0.084297
-0.048473
-0.002358
0.050834
0.082756
0.106867
0.133244
0.134232
0.116258
0.105389
0.071502
0.030631
-0.020495
-0.055227
-0.098148
-0.144891
-0.184360
-0.174751
-0.148619
-0.107122
-0.071834
-0.039044
0.009156
0.048569
0.075511
0.110613
0.141255
0.168927
0.145496
0.121669
0.078970
0.028992
-0.020309
-0.066643
-0.107958
-0.133607
-0.143113
-0.139762
-0.133491
-0.114854
-0.079655
-0.036709
0.008814
0.057721
0.091911
0.129677
0.149171
0.145089
0.137579
0.120357
0.089151
0.037120
-0.020423
-0.057619
-0.078077
-0.107611
-0.118200
-0.131537
-0.111801
-0.089010
-0.048006
-0.013216
0.036143
0.085015
0.125816
0.148047
0.163083
0.154865
0.162672
0.136991
0.101380
0.062262
0.024849
-0.020570
-0.068446
-0.098640
-0.110834
-0.103631
-0.084113
-0.052007
-0.018636
0.013477
0.060016
0.097204
0.143370
0.188522
0.213715
0.209441
0.203765
0.187814
0.159452
0.112806
0.079693
0.034973
-0.011726
-0.047918
-0.049729
-0.049701
-0.050055
-0.021896
0.005967
0.051842
0.105523
0.139290
0.173103
0.215041
0.241444
0.250637
0.243004
0.207092
0.171794
0.142131
0.117974
0.073414
0.031423
0.001962
-0.013394
-0.014938
-0.012514
0.008920
0.052501
0.090131
0.140228
0.185649
0.213257
0.256025
0.286301
0.295103
0.284871
0.267052
0.221951
0.160301
0.104912
0.073817
0.041843
0.011839
-0.007384
0.002645
0.016558
0.032504
0.063498
0.106408
0.153970
0.192298
0.233984
0.260444
0.269791
0.290519
0.274158
0.240542
0.215027
0.164412
0.106815
0.069054
0.023320
0.004828
-0.005152
-0.022470
-0.020981
-0.004307
0.031093
0.074937
0.124382
0.169178
0.193039
0.234776
0.259372
0.267854
0.257005
0.223572
0.185960
0.138351
0.096290
0.056085
0.009225
-0.027386
-0.056858
-0.054388
-0.056412
-0.048920
-0.024995
0.034651
0.090319
0.130394
0.161309
0.181832
0.201858
0.196738
0.195418
0.169780
0.121055
0.090161
0.046569
0.010297
-0.030334
-0.073958
-0.099500
-0.120113
-0.106980
-0.086280
-0.052503
-0.016201
0.031483
0.079856
0.123345
0.147543
0.179760
0.177916
0.174172
0.146383
0.117481
0.078128
0.027241
-0.031523
-0.070225
-0.099075
-0.119137
-0.133154
-0.129629
-0.106190
-0.062814
-0.023186
0.022106
0.070377
0.112096
0.137936
0.164233
0.169391
0.152199
0.128430
0.101758
0.056472
0.019986
-0.021366
-0.078569
-0.115145
-0.131554
-0.135996
-0.126787
-0.105894
-0.062065
-0.009305
0.027638
0.061567
0.100833
0.132034
0.148795
0.147324
0.138225
0.140449
0.100484
0.055650
-0.001884
-0.041689
-0.069046
-0.085683
-0.118195
-0.125549
-0.118233
-0.095770
-0.050732
-0.012908
0.026412
0.064806
0.113947
0.156322
0.181884
0.183207
0.167167
0.137773
0.097537
0.047557
0.016463
-0.018037
-0.055876
-0.082795
-0.115659
-0.123214
-0.126595
-0.104130
-0.060685
-0.004469
0.040844
0.075898
0.119315
0.149339
0.161039
0.168822
0.170894
0.149510
0.112383
0.067563
0.032786
-0.017245
-0.070226
-0.100115
-0.109026
-0.103709
-0.097231
-0.083849
-0.058085
-0.031987
0.014109
0.050155
0.111931
0.147214
0.177962
0.176585
0.154500
0.120075
0.100731
0.060405
0.008843
-0.044105
-0.085311
-0.107089
-0.114063
-0.101563
-0.091314
-0.071292
-0.049587
-0.019329
0.028926
0.063783
0.116773
0.171142
0.173621
0.167535
0.153329
0.135179
0.096106
0.061866
0.022015
-0.035970
-0.076025
-0.106196
-0.134590
-0.135844
-0.128350
-0.108835
-0.066676
-0.032242
0.007112
0.053494
0.093408
0.135650
0.154725
0.164778
0.174531
0.139854
0.112482
0.070558
0.007536
-0.039204
-0.077742
-0.103649
-0.128524
-0.140121
-0.122706
-0.109182
-0.085829
-0.024107
0.024811
0.063352
0.108177
0.139219
0.157429
0.179604
0.171551
0.131884
0.094381
0.055609
0.009474
-0.051563
-0.090980
-0.123181
-0.128220
-0.145447
-0.135159
-0.111502
-0.066323
-0.031473
0.010079
0.053323
0.087586
0.111862
0.140671
0.157521
0.139759
0.120113
0.105931
0.057833
0.003112
-0.049110
-0.090027
-0.125014
-0.139392
-0.134079
-0.115967
-0.094708
-0.086632
-0.028527
0.020138
0.052258
0.094490
0.123962
0.149989
0.153299
0.132101
0.112468
0.059961
0.015491
-0.043891
-0.058147
-0.094999
-0.120375
-0.137601
-0.157144
-0.130991
-0.111186
-0.094763
-0.049453
0.024744
0.065567
0.089975
0.131326
0.150611
0.152820
0.141538
0.095608
0.069318
0.046156
0.003919
-0.041719
-0.079951
-0.114292
-0.140793
-0.148246
-0.133336
-0.114549
-0.087113
-0.035940
0.022619
0.058948
0.089251
0.117762
0.142661
0.156536
0.155479
0.137754
0.094680
0.053394
0.022606
-0.029412
-0.065277
-0.104178
-0.139343
-0.156689
-0.134077
-0.098810
-0.067965
-0.035430
0.029190
0.090229
0.134335
0.180654
0.198232
0.196107
0.181410
0.139993
0.114902
0.085469
0.044649
-0.012407
-0.048372
-0.084520
-0.120686
-0.138538
-0.098653
-0.070407
-0.043980
-0.000472
0.034136
0.081682
0.121290
0.163792
0.148345
0.179573
0.178580
0.169207
0.139421
0.096321
0.056425
0.021833
-0.011709
-0.062188
-0.106490
-0.125027
-0.097697
-0.064006
-0.016182
0.018542
0.050749
0.104464
0.135975
0.165728
0.189313
0.200033
0.200287
0.173935
0.135190
0.092128
0.043122
-0.022166
-0.076978
-0.112251
-0.138856
-0.156659
-0.139093
-0.114943
-0.093172
-0.050880
0.015068
0.055340
0.088235
0.114277
0.120469
0.118859
0.120673
0.087773
0.056631
0.012387
-0.054257
-0.096824
-0.130074
-0.170257
-0.177587
-0.160456
-0.149272
-0.129900
-0.099714
-0.056944
-0.006781
0.038975
0.087245
0.107343
0.120560
0.123425
0.118684
0.095631
0.051181
0.005022
-0.042357
-0.087122
-0.121545
-0.142117
-0.159694
-0.160256
-0.153091
-0.136564
-0.110438
-0.073870
-0.017612
0.026664
0.047424
0.081079
0.118964
0.113948
0.103745
0.073806
0.035997
0.000432
-0.030424
-0.074987
-0.120122
-0.153087
-0.177469
-0.189734
-0.189093
-0.163453
-0.113069
-0.072541
-0.033419
0.016168
0.050685
0.096121
0.110379
0.115653
0.097859
0.050919
0.014142
-0.018326
-0.050661
-0.082725
-0.140666
-0.167921
-0.179985
-0.185763
-0.176362
-0.171802
-0.144701
-0.094220
-0.035425
0.024007
0.080022
0.124060
0.114080
0.147856
0.152868
0.145703
0.134462
0.102400
0.060542
0.037010
0.016892
-0.010743
-0.011717
0.007036
0.041145
0.086229
0.147222
0.202124
0.271107
0.345351
0.435235
0.499168
0.541930
0.563956
0.596245
0.602301
0.596496
0.586061
0.571670
0.560405
0.586991
0.585739
0.603521
0.592254
0.584726
0.609500
0.661384
0.696106
0.721994
0.739333
0.732411
0.715100
0.672571
0.629858
0.562823
0.478349
0.396689
0.309258
0.216300
0.120247
0.048620
-0.017149
-0.063006
-0.084729
-0.076090
-0.051121
-0.025145
0.004621
0.040892
0.098808
0.136782
0.173833
0.197025
0.202140
0.180736
0.133315
0.095095
0.075069
0.022001
-0.032775
-0.087360
-0.128603
-0.164963
-0.162537
-0.136956
-0.096560
-0.064466
-0.040923
-0.001093
0.049659
0.083257
0.126534
0.138368
0.146744
0.131893
0.106960
0.077903
0.045069
0.003282
-0.041282
-0.074285
-0.089122
-0.127507
-0.179772
-0.178499
-0.128282
-0.076864
-0.027893
0.010549
0.045082
0.074739
0.098537
0.121716
0.139687
0.139999
0.110976
0.074194
0.033042
-0.002121
-0.045715
-0.088972
-0.118239
-0.134202
-0.138659
-0.131887
-0.107971
-0.075736
-0.043923
-0.008891
0.048588
0.101918
0.146105
0.161525
0.165119
0.153978
0.130381
0.097766
0.050578
0.018715
-0.022540
-0.082091
-0.103688
-0.111216
-0.119291
-0.108398
-0.085644
-0.050818
-0.010885
0.035235
0.084122
0.123483
0.160643
0.177569
0.188836
0.189913
0.152470
0.119324
0.066960
0.033147
0.008297
-0.028254
-0.051558
-0.070603
-0.090961
-0.090886
-0.087230
-0.041864
0.014372
0.074822
0.110248
0.145187
0.174785
0.192759
0.194507
0.189382
0.162504
0.135382
0.100524
0.065272
0.033094
-0.002345
-0.040978
-0.064981
-0.056042
-0.039010
-0.009881
0.014873
0.052471
0.104516
0.151296
0.194403
0.219836
0.235766
0.246637
0.238920
0.216791
0.180092
0.142287
0.106649
0.066419
0.026258
-0.013854
-0.031196
-0.035582
-0.012392
0.017119
0.048901
0.079849
0.135076
0.174011
0.224386
0.265671
0.272723
0.286169
0.290289
0.266427
0.229511
0.175645
0.120865
0.079097
0.057665
0.002953
-0.017952
-0.004284
0.003876
0.029097
0.070488
0.105244
0.141222
0.217184
0.246133
0.275012
0.291912
0.273846
0.245047
0.239934
0.212857
0.175263
0.126566
0.074500
0.019230
-0.015731
-0.034919
-0.043630
-0.032126
-0.012696
0.019533
0.069705
0.115983
0.146163
0.169249
0.202765
0.248391
0.281345
0.262829
0.240891
0.201394
0.158729
0.099242
0.057063
0.008627
-0.030047
-0.079293
-0.090593
-0.072869
-0.049527
-0.027480
0.030538
0.078210
0.111071
0.144799
0.183077
0.215055
0.203814
0.191643
0.169448
0.130927
0.094876
0.053151
0.002284
-0.051523
-0.089449
-0.112035
-0.112679
-0.103286
-0.088789
-0.063580
-0.015795
0.036813
0.074151
0.114765
0.145831
0.157937
0.152809
0.157589
0.126061
0.068015
0.034268
-0.002996
-0.053924
-0.094492
-0.124835
-0.149850
-0.142488
-0.120068
-0.108340
-0.082076
-0.033530
0.014136
0.060865
0.098472
0.125806
0.142536
0.149371
0.137736
0.105152
0.074822
0.036787
0.000151
-0.033408
-0.085252
-0.116677
-0.157611
-0.161910
-0.136881
-0.111332
-0.069740
-0.033164
0.021670
0.067296
0.096772
0.135646
0.163640
0.154055
0.150964
0.118641
0.082127
0.030229
0.004502
-0.025939
-0.083935
-0.117482
-0.125148
-0.127094
-0.123192
-0.102875
-0.076633
-0.019555
0.007636
0.045195
0.093092
0.130071
0.157348
0.151185
0.124139
0.129982
0.119017
0.063688
0.008693
-0.040530
-0.078514
-0.118368
-0.130736
-0.135535
-0.117941
-0.101709
-0.070483
-0.032141
-0.000060
0.050719
0.113878
0.142941
0.150177
0.161708
0.160536
0.136033
0.088682
0.045981
0.003946
-0.037651
-0.071559
-0.114730
-0.142735
-0.128300
-0.104533
-0.091855
-0.062643
-0.026650
0.019970
0.061990
0.091308
0.126977
0.137354
0.148947
0.127852
0.119179
0.092747
0.061833
0.020266
-0.024056
-0.066674
-0.094795
-0.119093
-0.125856
-0.114473
-0.081940
-0.053139
-0.014252
0.011832
0.065097
0.115496
0.146120
0.162283
0.169253
0.150323
0.127243
0.078573
0.012428
-0.018049
-0.046274
-0.074619
-0.108090
-0.141388
-0.154091
-0.130864
-0.115243
-0.084165
-0.074733
-0.001257
0.062083
0.094657
0.137532
0.151732
0.142767
0.133207
0.099958
0.068724
0.034246
-0.003350
-0.051069
-0.089623
-0.117730
-0.132953
-0.146187
-0.152856
-0.140023
-0.117233
-0.045100
0.016160
0.076100
0.127378
0.119762
0.135058
0.149265
0.133962
0.108910
0.072009
0.041689
-0.007074
-0.061521
-0.090775
-0.108845
-0.132382
-0.142424
-0.117338
-0.109702
-0.086893
-0.066795
-0.024021
0.028421
0.071664
0.105242
0.117483
0.122476
0.109029
0.094068
0.076609
0.049369
-0.009761
-0.046393
-0.089156
-0.118019
-0.130032
-0.140847
-0.139808
-0.123212
-0.098853
-0.050630
-0.006339
0.029258
0.069849
0.103448
0.123802
0.132996
0.120896
0.100299
0.069993
0.029810
-0.007602
-0.027974
-0.078315
-0.116603
-0.149636
-0.156619
-0.138328
-0.116891
-0.082230
-0.034613
0.003352
0.064643
0.097456
0.110586
0.141037
0.165796
0.159006
0.138071
0.107130
0.056043
0.021976
-0.025308
-0.060636
-0.088293
-0.122191
-0.130276
-0.141052
-0.108322
-0.060319
-0.012148
0.042600
0.100879
0.135320
0.159050
0.185843
0.187862
0.164661
0.137113
0.078608
0.041818
-0.000517
-0.035154
-0.060862
-0.088307
-0.109677
-0.119130
-0.096274
-0.072266
-0.045980
0.010185
0.058464
0.085283
0.119858
0.159882
0.187060
0.197492
0.178804
0.158194
0.118493
0.077061
0.037465
-0.013393
-0.047569
-0.058549
-0.090350
-0.100860
-0.105738
-0.085898
-0.041303
0.006002
0.046239
0.082809
0.110314
0.127575
0.141742
0.147102
0.125314
0.105821
0.089303
0.060816
0.015994
-0.037980
-0.078776
-0.111196
-0.146433
-0.159816
-0.148180
-0.132828
-0.096660
-0.046833
-0.018128
0.020421
0.066085
0.111062
0.116645
0.117390
0.107413
0.087933
0.062853
0.031645
-0.024690
-0.080053
-0.130910
-0.161664
-0.168872
-0.174261
-0.148057
-0.122723
-0.106770
-0.085757
-0.026016
0.028644
0.066664
0.105088
0.119837
0.132970
0.112806
0.077756
0.039885
-0.013047
-0.046503
-0.085626
-0.119753
-0.139293
-0.164957
-0.171228
-0.170915
-0.164084
-0.120161
-0.074494
-0.027377
0.018241
0.065583
0.088482
0.099540
0.120358
0.111374
0.093646
0.059942
0.007623
-0.045698
-0.078933
-0.104294
-0.141468
-0.166202
-0.180483
-0.187243
-0.137560
-0.095884
-0.065712
-0.032262
0.009428
0.054657
0.079547
0.105766
0.111267
0.090417
0.063206
0.037811
-0.012419
-0.055176
-0.091604
-0.133936
-0.155243
-0.163426
-0.152351
-0.126695
-0.084579
-0.056220
-0.009645
0.053447
0.115094
0.170403
0.217411
0.253993
0.288740
0.282549
0.284158
0.276420
0.258792
0.230802
0.213340
0.215526
0.194158
0.199760
0.224269
0.268783
0.337436
0.386352
0.437897
0.524322
0.621095
0.685779
0.757092
0.825288
0.860782
0.881734
0.851674
0.834627
0.808165
0.750420
0.692412
0.628585
0.569862
0.504462
0.424852
0.372419
0.329982
0.287198
0.283857
0.282547
0.281523
0.275950
0.276584
0.270814
0.236090
0.184737
0.163605
0.149768
0.110522
0.056636
0.006839
-0.032449
-0.043299
-0.079856
-0.102272
-0.096587
-0.079077
-0.049646
-0.016880
0.029657
0.078263
0.114432
0.134790
0.157932
0.173366
0.157616
0.133161
0.085451
0.055931
0.001297
-0.032806
-0.079577
-0.109952
-0.139020
-0.145432
-0.131726
-0.112341
-0.071823
-0.036920
0.002429
0.035740
0.073233
0.104793
0.144436
0.146079
0.124575
0.102580
0.080227
0.057241
0.009900
-0.058849
-0.103167
-0.109551
-0.127217
-0.135198
-0.136158
-0.129936
-0.098523
-0.044026
-0.010217
0.030793
0.069907
0.118892
0.135615
0.140351
0.132190
0.114755
0.081111
0.038911
0.005980
-0.025331
-0.070038
-0.109863
-0.124446
-0.124321
-0.118562
-0.101475
-0.077366
-0.019557
0.012593
0.046443
0.087495
0.123828
0.150622
0.159214
0.156738
0.131526
0.109828
0.071171
0.036501
-0.001640
-0.051828
-0.089323
-0.109787
-0.114720
-0.119603
-0.089900
-0.040320
0.001481
0.048253
0.088562
0.139295
0.169566
0.174216
0.179441
0.177215
0.151634
0.120318
0.079860
0.027472
-0.000131
-0.041734
-0.058165
-0.076522
-0.072930
-0.065355
-0.047786
-0.020638
0.036573
0.094288
0.141576
0.178561
0.203580
0.213579
0.220576
0.206817
0.186571
0.165001
0.123657
0.095137
0.053964
0.018498
-0.016499
-0.032101
-0.036229
-0.030663
-0.019845
0.020263
0.070660
0.115088
0.160418
0.194343
0.215031
0.247803
0.266689
0.267998
0.236983
0.205167
0.161118
0.116767
0.073199
0.046474
0.013761
-0.004475
-0.011708
-0.017383
-0.003550
0.037919
0.067036
0.118284
0.178656
0.236725
0.271076
0.290985
0.305902
0.284762
0.241245
0.194642
0.143254
0.116975
0.094150
0.060872
0.025447
-0.005812
-0.003786
-0.000773
0.003573
0.036752
0.077220
0.113869
0.179508
0.216167
0.244576
0.255483
0.255911
0.255672
0.230294
0.203862
0.163625
0.101579
0.050526
0.008742
-0.008159
-0.046148
-0.053358
-0.038489
-0.009137
0.011272
0.046220
0.095023
0.133117
0.179669
0.204547
0.232542
0.233927
0.211814
0.187553
0.158218
0.113671
0.065636
0.019579
-0.022291
-0.055133
-0.086437
-0.096488
-0.089490
-0.057236
-0.020279
0.021455
0.048457
0.089006
0.123977
0.139957
0.166130
0.183261
0.161414
0.133478
0.096547
0.057090
0.017085
-0.034598
-0.078208
-0.111451
-0.128481
-0.138672
-0.131265
-0.088743
-0.065990
-0.026036
0.019979
0.058754
0.089765
0.126241
0.151027
0.159943
0.148752
0.137934
0.104176
0.056570
-0.001536
-0.040949
-0.072494
-0.109056
-0.138143
-0.138180
-0.129868
-0.114153
-0.088444
-0.045675
-0.000475
0.046574
0.099934
0.125581
0.143611
0.138749
0.135234
0.107427
0.087040
0.059496
0.018899
-0.047803
-0.082643
-0.103297
-0.114544
-0.108157
-0.112416
-0.098485
-0.066553
-0.061471
-0.022671
0.027698
0.082207
0.140292
0.162767
0.161341
0.146502
0.116774
0.088676
0.041477
-0.003142
-0.046605
-0.090183
-0.114499
-0.127779
-0.133581
-0.136025
-0.115633
-0.085101
-0.033870
0.015020
0.060401
0.100724
0.129849
0.142924
0.147602
0.143586
0.126119
0.099660
0.055502
0.009521
-0.028866
-0.066773
-0.090818
-0.118297
-0.118955
-0.123191
-0.103170
-0.055842
-0.024860
0.023699
0.063868
0.104970
0.128122
0.161064
0.157530
0.163423
0.149655
0.106639
0.055789
0.016841
-0.033747
-0.073192
-0.102583
-0.127992
-0.127928
-0.142121
-0.118775
-0.082804
-0.047195
-0.000307
0.049688
0.099137
0.121858
0.132446
0.125765
0.131458
0.114260
0.098267
0.056880
0.024601
-0.022609
-0.068665
-0.097670
-0.125034
-0.131059
-0.129103
-0.101854
-0.069753
-0.028901
0.022141
0.070963
0.101027
0.120347
0.131179
0.143899
0.137570
0.121050
0.084856
0.047053
-0.007763
-0.049717
-0.088594
-0.110666
-0.134801
-0.137844
-0.136244
-0.107716
-0.087844
-0.050990
-0.002052
0.039493
0.081621
0.111551
0.134093
0.148258
0.138779
0.126269
0.088675
0.039636
-0.011479
-0.057454
-0.087008
-0.120661
-0.144109
-0.141405
-0.144587
-0.128427
-0.083435
-0.053146
-0.011286
0.032036
0.077439
0.114265
0.135285
0.136142
0.127023
0.106386
0.070294
0.042137
-0.008234
-0.061173
-0.111049
-0.139389
-0.152080
-0.148516
-0.141319
-0.111353
-0.068423
-0.023313
0.024686
0.063887
0.092421
0.134850
0.145780
0.140445
0.145377
0.126052
0.100518
0.059466
-0.000071
-0.042228
-0.056717
-0.091496
-0.112489
-0.109497
-0.106304
-0.094195
-0.061997
-0.024782
0.024920
0.085889
0.121599
0.148502
0.165580
0.170741
0.163657
0.143482
0.108096
0.068213
0.017971
-0.029114
-0.072453
-0.106907
-0.132600
-0.121847
-0.105323
-0.073481
-0.038473
0.008619
0.060365
0.113112
0.141231
0.170752
0.177107
0.173449
0.184779
0.167095
0.123943
0.083100
0.040699
-0.002389
-0.041964
-0.071007
-0.101035
-0.106487
-0.106092
-0.085450
-0.044446
-0.003784
0.038744
0.077041
0.109832
0.142276
0.162700
0.164823
0.151191
0.118241
0.076890
0.039886
-0.003652
-0.060928
-0.091518
-0.122185
-0.144648
-0.144820
-0.136696
-0.132671
-0.099482
-0.049959
-0.003057
0.042370
0.071357
0.090857
0.109983
0.116559
0.122432
0.100430
0.068877
0.015472
-0.045198
-0.067080
-0.115721
-0.155324
-0.175805
-0.188859
-0.172319
-0.151502
-0.140453
-0.105632
-0.039681
0.015602
0.052845
0.078859
0.098110
0.095398
0.094981
0.079429
0.048032
0.002598
-0.045299
-0.089222
-0.120142
-0.151366
-0.175035
-0.179736
-0.174725
-0.148943
-0.112985
-0.071769
-0.023773
0.022444
0.061999
0.099204
0.114703
0.107293
0.090737
0.075994
0.059184
0.016139
-0.048958
-0.105178
-0.147394
-0.176797
-0.185630
-0.175325
-0.160850
-0.143300
-0.113099
-0.072126
-0.027263
0.004752
0.040522
0.076677
0.105313
0.109866
0.100733
0.062279
0.034415
-0.005160
-0.057865
-0.097488
-0.127843
-0.145363
-0.166801
-0.165263
-0.155006
-0.129258
-0.085824
-0.038663
0.028454
0.078046
0.117128
0.166667
0.218053
0.242502
0.254516
0.251942
0.223860
0.195892
0.174110
0.155898
0.150373
0.137811
0.152232
0.182390
0.230836
0.276837
0.333830
0.415374
0.489165
0.554968
0.631017
0.697669
0.748233
0.800778
0.830012
0.846730
0.832613
0.802472
0.751858
0.712573
0.667728
0.604029
0.579372
0.552344
0.524263
0.480519
0.428637
0.395549
0.384336
0.379295
0.371848
0.366482
0.340764
0.306279
0.261990
0.219654
0.166556
0.119693
0.086985
0.029432
-0.013154
-0.060145
-0.089623
-0.095527
-0.086446
-0.069060
-0.041999
-0.000191
0.043892
0.088489
0.119679
0.152449
0.161740
0.165863
0.155322
0.134387
0.099401
0.043534
0.013945
-0.026955
-0.068897
-0.117541
-0.143835
-0.146885
-0.139032
-0.126809
-0.083799
-0.034812
0.013422
0.063437
0.098104
0.122649
0.142404
0.158026
0.145309
0.128026
0.095488
0.053670
0.009506
-0.053648
-0.121829
-0.153538
-0.162085
-0.158025
-0.142232
-0.123114
-0.090050
-0.045246
-0.014421
0.027400
0.074398
0.114413
0.131025
0.140485
0.132317
0.102511
0.080057
0.038933
-0.010523
-0.046736
-0.086804
-0.111204
-0.130653
-0.141730
-0.135434
-0.113559
-0.077464
-0.017493
0.026216
0.071205
0.109075
0.149126
0.158969
0.157213
0.153106
0.130549
0.098784
0.070380
0.031255
-0.037395
-0.074907
-0.096197
-0.110342
-0.109015
-0.104308
-0.082584
-0.055556
-0.008216
0.033568
0.088926
0.134102
0.172783
0.185172
0.186092
0.187544
0.154304
0.128288
0.083813
0.048438
0.003239
-0.025895
-0.059596
-0.079670
-0.090831
-0.085506
-0.060392
-0.016611
0.010542
0.058176
0.102392
0.154621
0.190481
0.210026
0.217936
0.218156
0.190852
0.170855
0.142321
0.089839
0.043803
0.006125
-0.039282
-0.056985
-0.071074
-0.041774
-0.024049
0.007145
0.055574
0.103147
0.158698
0.204662
0.236889
0.235681
0.232748
0.235191
0.217995
0.188316
0.143875
0.113565
0.065006
0.027814
-0.015266
-0.030639
-0.027201
0.005408
0.022204
0.041393
0.089579
0.138142
0.175090
0.207636
0.241837
0.262324
0.265633
0.273240
0.260748
0.216865
0.163917
0.112038
0.062605
0.024389
-0.007395
-0.023584
-0.030376
-0.021491
-0.001040
0.038989
0.085255
0.122471
0.167960
0.193201
0.226829
0.247040
0.259434
0.263308
0.249816
0.211218
0.169617
0.105257
0.051154
0.013127
-0.012225
-0.027855
-0.039436
-0.049349
-0.025427
0.021217
0.053806
0.094496
0.133605
0.174976
0.206256
0.215272
0.216605
0.190392
0.170382
0.133216
0.100109
0.059261
0.016442
-0.025870
-0.068382
-0.084435
-0.096435
-0.085840
-0.066733
-0.033293
-0.000729
0.033410
0.089344
0.128960
0.156162
0.172934
0.167089
0.157005
0.146892
0.112090
0.067863
0.030742
-0.010446
-0.051316
-0.099592
-0.120419
-0.126446
-0.116029
-0.103380
-0.067921
-0.019912
0.013385
0.057332
0.096595
0.127646
0.151690
0.147481
0.142916
0.123964
0.082244
0.019669
-0.018571
-0.035771
-0.060061
-0.085811
-0.124128
-0.143220
-0.133370
-0.112774
-0.082957
-0.046718
0.008438
0.055104
0.095975
0.126123
0.143174
0.149249
0.138803
0.113043
0.083295
0.046748
0.000740
-0.047108
-0.094336
-0.126197
-0.136277
-0.148822
-0.127356
-0.115412
-0.080606
-0.030899
0.014660
0.057989
0.097607
0.125052
0.147972
0.157931
0.144615
0.119674
0.092205
0.048371
0.006545
-0.037222
-0.068613
-0.108019
-0.126717
-0.138255
-0.124458
-0.104049
-0.073431
-0.033938
0.002928
0.061185
0.100171
0.126565
0.139318
0.138153
0.135297
0.121802
0.105072
0.050075
-0.002045
-0.044492
-0.070925
-0.104845
-0.118569
-0.127640
-0.119148
-0.092873
-0.063971
-0.023871
0.017419
0.057671
0.102647
0.131233
0.145954
0.147319
0.150943
0.135582
0.104700
0.063956
0.019783
-0.029780
-0.084164
-0.110894
-0.124560
-0.127915
-0.130732
-0.117125
-0.071088
-0.020917
0.029806
0.068538
0.093918
0.135457
0.146703
0.139562
0.141353
0.128134
0.099939
0.059025
0.009064
-0.017154
-0.064990
-0.108519
-0.132226
-0.127077
-0.122419
-0.115031
-0.097990
-0.063270
0.005810
0.054369
0.096557
0.122454
0.136332
0.138334
0.132684
0.112195
0.078621
0.040487
-0.003126
-0.045149
-0.085008
-0.121265
-0.136689
-0.141863
-0.130579
-0.113295
-0.094896
-0.051810
-0.010415
0.038680
0.074795
0.107907
0.133412
0.150024
0.145500
0.115466
0.077120
0.032463
-0.012902
-0.056446
-0.101226
-0.128279
-0.142682
-0.157024
-0.151040
-0.135222
-0.109678
-0.069709
-0.012131
0.024541
0.059338
0.101951
0.134584
0.143660
0.131281
0.115451
0.083243
0.039593
-0.010095
-0.046328
-0.075444
-0.114258
-0.139365
-0.142032
-0.131088
-0.103044
-0.070600
-0.029558
0.024932
0.070128
0.114732
0.144285
0.162381
0.170211
0.154761
0.131430
0.107938
0.072754
0.034057
-0.015624
-0.055849
-0.076210
-0.099408
-0.118649
-0.112938
-0.090693
-0.053061
-0.020921
0.015699
0.061251
0.111647
0.145506
0.155560
0.165084
0.168839
0.139106
0.105248
0.068579
0.023761
-0.020796
-0.042559
-0.063869
-0.094742
-0.115906
-0.113855
-0.074116
-0.038135
0.017118
0.050007
0.086462
0.120952
0.154368
0.163406
0.179038
0.163355
0.141718
0.106355
0.077518
0.038281
-0.004226
-0.060774
-0.106330
-0.120855
-0.133454
-0.127327
-0.108870
-0.080310
-0.039518
0.008480
0.045609
0.081182
0.103669
0.121558
0.131363
0.122361
0.106549
0.055226
0.015035
-0.036667
-0.084654
-0.109663
-0.137633
-0.153608
-0.179562
-0.177267
-0.146765
-0.112524
-0.076266
-0.032182
0.002398
0.042968
0.068441
0.087022
0.092720
0.087428
0.072087
0.051051
0.006272
-0.039585
-0.079001
-0.124307
-0.162509
-0.182438
-0.200919
-0.197310
-0.176899
-0.134707
-0.092707
-0.053588
0.001810
0.039990
0.079029
0.081171
0.099277
0.092122
0.065467
0.037342
0.000827
-0.031766
-0.090992
-0.141375
-0.167686
-0.175625
-0.188315
-0.174658
-0.158601
-0.131318
-0.105911
-0.062450
-0.014167
0.018643
0.043577
0.074592
0.102665
0.097170
0.079781
0.045182
-0.002657
-0.053121
-0.101874
-0.134012
-0.167601
-0.199040
-0.212214
-0.190729
-0.169707
-0.138130
-0.101189
-0.051318
-0.010077
0.020351
0.059134
0.078734
0.091518
0.100806
0.091048
0.069831
0.039566
-0.012336
-0.028120
-0.056775
-0.083126
-0.078054
-0.054947
-0.035358
-0.012140
0.034260
0.103256
0.175902
0.240966
0.309472
0.369374
0.415504
0.442196
0.479669
0.485677
0.492006
0.481592
0.464522
0.448341
0.439615
0.436131
0.466048
0.512892
0.558948
0.612121
0.671405
0.731251
0.761353
0.809082
0.849895
0.845598
0.851268
0.844391
0.799679
0.735700
0.629811
0.506674
0.398799
0.297959
0.212910
0.124024
0.058634
0.005486
-0.004271
-0.003330
0.020843
0.064495
0.109551
0.155850
0.185002
0.209126
0.212186
0.212201
0.195473
0.171694
0.133450
0.068382
0.012079
-0.032515
-0.070680
-0.101862
-0.122605
-0.135994
-0.129485
-0.118196
-0.090942
-0.048215
-0.000315
0.045299
0.078595
0.118717
0.134949
0.140960
0.133307
0.106526
0.062060
0.021947
-0.013989
-0.056493
-0.102542
-0.130471
-0.154408
-0.159562
-0.152322
-0.128453
-0.104811
-0.063856
-0.021287
0.027567
0.064929
0.107696
0.129078
0.131901
0.122402
0.098399
0.068062
0.028633
-0.015439
-0.055930
-0.094633
-0.137282
-0.174935
-0.186207
-0.169114
-0.140398
-0.095629
-0.046742
-0.011544
0.024744
0.064563
0.096983
0.108922
0.122228
0.120460
0.108876
0.070107
0.038018
-0.009221
-0.054429
-0.094187
-0.119878
-0.143186
-0.142865
-0.142001
-0.125695
-0.091335
-0.040936
0.004960
0.048054
0.089886
0.123317
0.138694
0.144134
0.140746
0.125596
0.104190
0.068074
0.007774
-0.036913
-0.079794
-0.115026
-0.137190
-0.135899
-0.120522
-0.100143
-0.069989
-0.029414
0.026158
0.079283
0.121270
0.156405
0.167418
0.171750
0.164179
0.143995
0.110421
0.077310
0.032896
-0.003282
-0.039026
-0.071819
-0.087015
-0.091695
-0.086508
-0.061768
-0.032328
0.022908
0.069871
0.119911
0.145957
0.175304
0.201120
0.215554
0.204843
0.179231
0.153137
0.114720
0.071900
0.030346
0.002810
-0.033610
-0.064731
-0.071496
-0.060008
-0.041261
-0.008146
0.033121
0.085384
0.133387
0.185417
0.222461
0.236043
0.252122
0.249390
0.220923
0.171459
0.131981
0.088923
0.054806
0.007933
-0.016241
-0.034892
-0.044241
-0.046263
-0.037494
0.004016
0.046879
0.098902
0.151410
0.177069
0.212063
0.232284
0.227691
0.219679
0.194106
0.164272
0.124044
0.067855
0.019629
-0.016983
-0.041976
-0.062152
-0.076080
-0.073301
-0.046259
-0.009981
0.039725
0.093576
0.138520
0.170667
0.182971
0.206218
0.215685
0.199782
0.174451
0.141697
0.108405
0.070140
0.018004
-0.028257
-0.061261
-0.087760
-0.103867
-0.099189
-0.071741
-0.032020
-0.007761
0.029588
0.081568
0.116044
0.144432
0.166560
0.158050
0.147101
0.135523
0.103525
0.060000
0.016697
-0.035459
-0.074820
-0.106028
-0.128987
-0.127962
-0.134740
-0.117296
-0.093738
-0.053413
-0.004694
0.042208
0.077344
0.110962
0.129327
0.128546
0.124297
0.108237
0.070073
0.036263
-0.002492
-0.050686
-0.092747
-0.126973
-0.152368
-0.165109
-0.157935
-0.145885
-0.100281
-0.063741
-0.022712
0.016212
0.061350
0.093307
0.112850
0.117856
0.113690
0.089758
0.054330
0.014517
-0.033284
-0.076426
-0.116113
-0.133945
-0.154939
-0.161244
-0.151302
-0.134700
-0.102054
-0.068261
-0.026005
0.016255
0.060252
0.093627
0.121013
0.129486
0.118320
0.098672
0.059546
0.030373
-0.016140
-0.060240
-0.100802
-0.135306
-0.159065
-0.167534
-0.153097
-0.136577
-0.106749
-0.060184
-0.014602
0.026006
0.066507
0.093087
0.110219
0.128593
0.113255
0.094831
0.063269
0.021286
-0.027013
-0.065737
-0.097291
-0.129425
-0.150819
-0.160786
-0.153815
-0.119485
-0.085416
-0.054202
-0.012409
0.039060
0.072522
0.103665
0.125565
0.129524
0.124058
0.106885
0.073253
0.031817
-0.008448
-0.051961
-0.086971
-0.118911
-0.139546
-0.152514
-0.159761
-0.138782
-0.095850
-0.047315
-0.015322
0.016309
0.055450
0.095382
0.118689
0.131588
0.126235
0.097573
0.065333
0.016651
-0.023388
-0.064799
-0.102052
-0.144475
-0.167657
-0.169300
-0.156343
-0.134839
-0.101647
-0.060121
-0.019453
0.025797
0.066993
0.090781
0.111251
0.121313
0.114775
0.096347
0.062821
0.016209
-0.025722
-0.071479
-0.108844
-0.141543
-0.161324
-0.163754
-0.156593
-0.141599
-0.114167
-0.069047
-0.034232
0.010411
0.057856
0.083353
0.109227
0.118050
0.101858
0.076512
0.045281
0.004023
-0.033777
-0.081610
-0.117166
-0.146363
-0.161547
-0.171981
-0.169876
-0.153758
-0.125658
-0.079547
-0.036840
0.008005
0.054383
0.079162
0.098299
0.101843
0.093221
0.076045
0.050951
0.004133
-0.043322
-0.090878
-0.128359
-0.155320
-0.180394
-0.181688
-0.165651
-0.146290
-0.119153
-0.077341
-0.032691
0.017909
0.062040
0.091476
0.110578
0.105928
0.100958
0.080075
0.046695
0.007886
-0.038711
-0.066169
-0.099924
-0.122704
-0.148201
-0.160262
-0.150016
-0.133868
-0.103318
-0.058531
-0.019526
0.036110
0.075916
0.099346
0.123860
0.131658
0.123177
0.107507
0.088690
0.040543
-0.003446
-0.045411
-0.089095
-0.112715
-0.137009
-0.158013
-0.146797
-0.122285
-0.089100
-0.052798
-0.008348
0.041918
0.087091
0.111381
0.136903
0.146553
0.143530
0.136593
0.095873
0.049115
0.012199
-0.032791
-0.071676
-0.105898
-0.127674
-0.137041
-0.130378
-0.105751
-0.081665
-0.042830
-0.001547
0.049324
0.089751
0.108025
0.131192
